time,cart_pos,pend_pos,cart_vel,pend_vel,force
2.026557922363281250e-05,0.000000000000000000e+00,3.141592653589793116e+00,0.000000000000000000e+00,0.000000000000000000e+00,-8.820812722407170032e-04
2.001547813415527344e-02,-1.545371431833060480e-07,3.141593302573830737e+00,-1.520212412485341741e-05,6.365416761698476959e-05,-8.771298288572791924e-01
4.001760482788085938e-02,-1.541135784807113240e-04,3.142239840552073282e+00,-1.513054427546135783e-02,6.335282149232987492e-02,-1.480857495526405554e+00
6.002545356750488281e-02,-7.015634917052433533e-04,3.144520628983044297e+00,-3.921241200608577282e-02,1.625701189660542223e-01,-1.812070924898767865e+00
8.004188537597656250e-02,-1.765238347165562927e-03,3.148897890795676169e+00,-6.669138821918606241e-02,2.724354669663315853e-01,-2.096963498480698629e+00
1.000449657440185547e-01,-3.401375397511456795e-03,3.155516585319198875e+00,-9.641548961128182382e-02,3.862161928577218517e-01,-2.352116320809158889e+00
1.200537681579589844e-01,-5.647157821291683838e-03,3.164403486168233748e+00,-1.276251508518701505e-01,4.988141334202235710e-01,-2.577836508051149611e+00
1.400582790374755859e-01,-8.525353961925590668e-03,3.175487117675976467e+00,-1.596374682689940538e-01,6.055113110143752753e-01,-2.733398106517064274e+00
1.600663661956787109e-01,-1.203860580369282146e-02,3.188575712725400635e+00,-1.911335548149439290e-01,6.990631074959576807e-01,-2.849454553527982714e+00
1.800773143768310547e-01,-1.616984715678074225e-02,3.203363235926606656e+00,-2.214510967526358565e-01,7.752554749923623589e-01,-2.925825250593154347e+00
2.000849246978759766e-01,-2.088942865908694629e-02,3.219465343665258938e+00,-2.499933410295867853e-01,8.304792874288303706e-01,-2.917921860234086395e+00
2.200913429260253906e-01,-2.614861081227706080e-02,3.236399401115068741e+00,-2.754600184653191453e-01,8.585838691641357601e-01,-2.867474400334630413e+00
2.400989532470703125e-01,-3.188130784055534517e-02,3.253601186053328487e+00,-2.974030078235403995e-01,8.575083813142010403e-01,-2.771912706513295355e+00
2.601072788238525391e-01,-3.801256904760710875e-02,3.270470913118773471e+00,-3.153838245244479088e-01,8.257606164256529047e-01,-2.595748289688709409e+00
2.801222801208496094e-01,-4.445300565142819987e-02,3.286360820858905907e+00,-3.284063299196300356e-01,7.600824174032841940e-01,-2.380498407160537955e+00
3.001260757446289062e-01,-5.110164188999118812e-02,3.300598799248801729e+00,-3.362942044702220690e-01,6.612335337288135495e-01,-2.127426531859924363e+00
3.201313018798828125e-01,-5.785446260145250819e-02,3.312535400562922394e+00,-3.389186386127412409e-01,5.307084842692872950e-01,-1.807415332223943238e+00
3.401482105255126953e-01,-6.459998300254145287e-02,3.321535772509730311e+00,-3.356690527540352464e-01,3.685017790527184145e-01,-1.457054046668062153e+00
3.601479530334472656e-01,-7.122153547312375099e-02,3.326998895584805993e+00,-3.266260106331180801e-01,1.779406835815776078e-01,-1.080608924384109049e+00
3.801624774932861328e-01,-7.760475845973298370e-02,3.328396985489566973e+00,-3.119382111133639501e-01,-3.699568664233923720e-02,-6.555774521876709393e-01
4.001657962799072266e-01,-8.363420517361300210e-02,3.325268130375781617e+00,-2.913549914876221170e-01,-2.736778865292352481e-01,-2.134188411371970295e-01
4.201726913452148438e-01,-8.919516670381993917e-02,3.317229458246613305e+00,-2.651917565410215061e-01,-5.268803989125667719e-01,2.469830603631170685e-01
4.401807785034179688e-01,-9.417877827814835623e-02,3.304002577412467723e+00,-2.337186522419884283e-01,-7.913850051744888425e-01,7.316161716703053486e-01
4.601891040802001953e-01,-9.848033010780143925e-02,3.285409650042945273e+00,-1.970835236939610657e-01,-1.062351283953672620e+00,1.219523755928036524e+00
4.802012443542480469e-01,-1.020016805125400772e-01,3.261385649469791925e+00,-1.557900080867822279e-01,-1.333371306113720234e+00,1.711387669840400028e+00
5.002055168151855469e-01,-1.046542793272066535e-01,3.231992136307330732e+00,-1.102946025382916945e-01,-1.598201929693157330e+00,2.189383884787114987e+00
5.202136039733886719e-01,-1.063615218422091918e-01,3.197427162313852378e+00,-6.133064097410675930e-02,-1.849474078876333305e+00,2.647525604281452782e+00
5.402214527130126953e-01,-1.070619367176058045e-01,3.158037049164271526e+00,-9.676541310215724945e-03,-2.079758609810009595e+00,3.085732334649840425e+00
5.602295398712158203e-01,-1.067089549132830967e-01,3.114311591382144861e+00,4.395628830173559792e-02,-2.282164792075184412e+00,3.455480012316927585e+00
5.802397727966308594e-01,-1.052780245261806386e-01,3.066907287472946830e+00,9.809236406086241367e-02,-2.447014902070541620e+00,3.776734036846470133e+00
6.002471446990966797e-01,-1.027690166888444584e-01,3.016646346891119101e+00,1.517592948308004452e-01,-2.567427144173529019e+00,4.050715099345274517e+00
6.202540397644042969e-01,-9.919977017847467216e-02,2.964473826586282001e+00,2.041326064546765684e-01,-2.638028107370705033e+00,4.207176030900789065e+00
6.402635574340820312e-01,-9.461561800428365532e-02,2.911477038470823508e+00,2.533074588564443452e-01,-2.650093353660248674e+00,4.310266528370340744e+00
6.602709293365478516e-01,-8.908634514126781423e-02,2.858847339979086133e+00,2.987214084670368197e-01,-2.601852203147492215e+00,4.348366775160427800e+00
6.802885532379150391e-01,-8.269388537922359173e-02,2.807801400003011594e+00,3.397221750979927402e-01,-2.492540613827901819e+00,4.280031955234015584e+00
7.002871036529541016e-01,-7.553927991941571107e-02,2.759581215462550308e+00,3.750589265430531727e-01,-2.320415167741573192e+00,4.167765026263171357e+00
7.202954292297363281e-01,-6.773618947097782839e-02,2.715400801891197702e+00,4.046960172264115752e-01,-2.089868137644172563e+00,4.010758301333248177e+00
7.403037548065185547e-01,-5.939902671596266476e-02,2.676376723071524744e+00,4.285900783785406287e-01,-1.806196044883313423e+00,3.785083518562589511e+00
7.603120803833007812e-01,-5.064730352295446214e-02,2.643528251757243819e+00,4.462784119678515626e-01,-1.473814135522516056e+00,3.532126212449329117e+00
7.803204059600830078e-01,-4.160254381953703423e-02,2.617754128679848691e+00,4.580083510887407727e-01,-1.100259921373103689e+00,3.252962265198846126e+00
8.003523349761962891e-01,-3.238183911558861761e-02,2.599802648723756437e+00,4.639760976779613855e-01,-6.930157105544907381e-01,2.919149582687130096e+00
8.203356266021728516e-01,-2.310389493309021602e-02,2.590292513985712475e+00,4.638337676336851123e-01,-2.575848879973324790e-01,2.562790675394589268e+00
8.403439521789550781e-01,-1.388896397722480698e-02,2.589713678379114814e+00,4.577676603322741733e-01,1.986977157831912866e-01,2.173040364165003346e+00
8.603518009185791016e-01,-4.855913071955217722e-03,2.598419627513099517e+00,4.457366568949415742e-01,6.694915312870677315e-01,1.711300676132908150e+00
8.803658485412597656e-01,3.868847780154251875e-03,2.616663043461114668e+00,4.270413025886323766e-01,1.150994621654746863e+00,1.208535367182923093e+00
9.003684520721435547e-01,1.215091075842668691e-02,2.644600469287537781e+00,4.015756198970393820e-01,1.637399435686795357e+00,6.643528692822330273e-01
9.203760623931884766e-01,1.985403463825687401e-02,2.682271943190526198e+00,3.692657828168969258e-01,2.122829760692750867e+00,3.261498091700069935e-02
9.403843879699707031e-01,2.683308310560836990e-02,2.729627746125137033e+00,3.293109818064897665e-01,2.604111929295528594e+00,-6.339627419102089600e-01
9.603922367095947266e-01,3.293739489606235804e-02,2.786513844374906679e+00,2.819470492817708340e-01,3.074007520316925035e+00,-1.336699507284568211e+00
9.804041385650634766e-01,3.802147527990942105e-02,2.852626167962546422e+00,2.274561429218890929e-01,3.524738519809777149e+00,-2.073199368931792019e+00
1.000414371490478516e+00,4.194663146282376354e-02,2.927496065562884553e+00,1.662341945974220025e-01,3.947642975744855676e+00,-2.793390566910887607e+00
1.020417451858520508e+00,4.459144438011113099e-02,3.010438608339570443e+00,9.959434997916191690e-02,4.329867460997703255e+00,-3.498755792147000943e+00
1.040425300598144531e+00,4.586002955325645808e-02,3.100511083014056535e+00,2.876874491600878159e-02,4.658608655617769045e+00,-4.084235406556586234e+00
1.060433149337768555e+00,4.569855489281030025e-02,3.196442784639153434e+00,-4.331184450186932600e-02,4.914187692293815246e+00,-4.558584551389163408e+00
1.080446481704711914e+00,4.410671561313349309e-02,3.296601098574065691e+00,-1.142364741768241709e-01,5.080316341129627489e+00,-4.942436401324616924e+00
1.100450515747070312e+00,4.112459652011652561e-02,3.399082606179847144e+00,-1.823798646071835561e-01,5.146351820585539194e+00,-5.068537860807589723e+00
1.120457887649536133e+00,3.684954838164337249e-02,3.501703172429051047e+00,-2.436921560651893748e-01,5.095235647117299926e+00,-5.088086910466766533e+00
1.140466213226318359e+00,3.142630688086718582e-02,3.602119871847795363e+00,-2.974223695217175223e-01,4.927827195471225608e+00,-4.987284053226101577e+00
1.160481452941894531e+00,2.501361171053197510e-02,3.698051623265947718e+00,-3.429014366959667881e-01,4.649256626794664449e+00,-4.742827919542536463e+00
1.180485248565673828e+00,1.778537411075110930e-02,3.787349177382081766e+00,-3.792612562230677220e-01,4.267341398297748611e+00,-4.474436910969957992e+00
1.200491428375244141e+00,9.911524359652786401e-03,3.868117773777456136e+00,-4.077076747240938048e-01,3.799231473279661486e+00,-4.181542475205169751e+00
1.220498800277709961e+00,1.540560018271356496e-03,3.938799560200664018e+00,-4.291685607722776630e-01,3.261298424949441888e+00,-3.907464218512864296e+00
1.240506649017333984e+00,-7.201849177878028030e-03,3.998170118470059542e+00,-4.449862331041007923e-01,2.670369663360626866e+00,-3.655061194294282778e+00
1.260520935058593750e+00,-1.621371777071641679e-02,4.045317441479546972e+00,-4.561946474069807356e-01,2.040862270130823219e+00,-3.425640968668628883e+00
1.280532360076904297e+00,-2.541087095203166044e-02,4.079593929140208353e+00,-4.635523773945492976e-01,1.384847972081309164e+00,-3.225767703516095875e+00
1.300531625747680664e+00,-3.472302680879138514e-02,4.100575088950934699e+00,-4.677006893333134907e-01,7.126290182959856834e-01,-3.016944021560278522e+00
1.320539474487304688e+00,-4.408460638174056812e-02,4.108010364675695136e+00,-4.684898745033262424e-01,3.140559609355753068e-02,-2.805558929906038834e+00
1.340548038482666016e+00,-5.342759598055079467e-02,4.101786169420020833e+00,-4.658329093023762524e-01,-6.522668900762337296e-01,-2.512388939551805755e+00
1.360556125640869141e+00,-6.266896560104923131e-02,4.081881942585908085e+00,-4.583419973386100299e-01,-1.335532819127045689e+00,-2.145965539814300715e+00
1.380567073822021484e+00,-7.170071900737866322e-02,4.048335702988120843e+00,-4.449101789883366798e-01,-2.015345600450225483e+00,-1.704537415555971602e+00
1.400572538375854492e+00,-8.039388194644815633e-02,4.001244975081087674e+00,-4.245516200865673828e-01,-2.688734195221105683e+00,-1.053658016754569271e+00
1.420580148696899414e+00,-8.857892582685515659e-02,3.940705585363522001e+00,-3.942328562901479816e-01,-3.358724129853443596e+00,-2.817365093818345878e-01
1.440588712692260742e+00,-9.604410042378985768e-02,3.866796056206926124e+00,-3.527471702422517730e-01,-4.023945780040004472e+00,6.119675110220270664e-01
1.460596561431884766e+00,-1.025560123980285704e-01,3.779629888526232051e+00,-2.991438610604755799e-01,-4.682139847935715693e+00,1.748126787526832038e+00
1.480613470077514648e+00,-1.078446145496255310e-01,3.679310373185350702e+00,-2.307429241882737458e-01,-5.336409463727205704e+00,2.967473929469980565e+00
1.500614404678344727e+00,-1.116184250156358332e-01,3.565997343302265588e+00,-1.480494629658511974e-01,-5.977877132711155284e+00,4.276979660390923144e+00
1.520621061325073242e+00,-1.135981648158130020e-01,3.440064673375946569e+00,-5.178133515486542382e-02,-6.593951285623965930e+00,5.448766717833404272e+00
1.540629148483276367e+00,-1.135620920940899198e-01,3.302347682847208699e+00,5.309863826284132171e-02,-7.151386286217333854e+00,6.000000000000000000e+00
1.560637950897216797e+00,-1.114713862022867902e-01,3.154740202106971481e+00,1.534458977683653136e-01,-7.578814851002231734e+00,6.000000000000000000e+00
1.580650568008422852e+00,-1.075252485400238767e-01,3.000470361576948353e+00,2.386860869606946545e-01,-7.815639793546814929e+00,6.000000000000000000e+00
1.600654125213623047e+00,-1.020196284839583606e-01,2.843422560257751197e+00,3.096206488535095946e-01,-7.857041507081885534e+00,6.000000000000000000e+00
1.620661497116088867e+00,-9.522350410479239746e-02,2.687431209114162556e+00,3.681272011804386235e-01,-7.712704355290297187e+00,6.000000000000000000e+00
1.640669584274291992e+00,-8.735975709161265812e-02,2.536013096971944769e+00,4.168616360863174330e-01,-7.403937180960188158e+00,6.000000000000000000e+00
1.660678148269653320e+00,-7.859476798958163479e-02,2.392187665389467366e+00,4.587242140611621499e-01,-6.958197305839629365e+00,5.977424100620187808e+00
1.680687189102172852e+00,-6.904267805075597897e-02,2.258420740008740601e+00,4.959729265550807398e-01,-6.402678720716150629e+00,5.903729685632364443e+00
1.700695753097534180e+00,-5.878235095070565713e-02,2.136663012565212405e+00,5.298490166642958465e-01,-5.761345703119657102e+00,5.236603665526128992e+00
1.720703601837158203e+00,-4.796319411808001865e-02,2.028603041570476329e+00,5.522062537124429182e-01,-5.037248551166982224e+00,4.693291162740077738e+00
1.740710496902465820e+00,-3.677635954470834245e-02,1.935574967210227593e+00,5.667968426009913907e-01,-4.261258148969508497e+00,4.270764197398126960e+00
1.760719299316406250e+00,-2.534826635649495286e-02,1.858386831457165211e+00,5.763860246371014240e-01,-3.455364219118310043e+00,4.111997892824133416e+00
1.780729532241821289e+00,-1.373383816326699189e-02,1.797453476937799000e+00,5.853619522729989200e-01,-2.637015379415196481e+00,4.058087503286426312e+00
1.800735473632812500e+00,-1.932867304900718827e-03,1.752935629609886581e+00,5.949254785941303636e-01,-1.814623848273093643e+00,4.110145811562847307e+00
1.820743322372436523e+00,1.007659979348547383e-02,1.724856131901540746e+00,6.060685351411483346e-01,-9.937221614473851217e-01,4.282919737979412389e+00
1.840751409530639648e+00,2.233727354864283726e-02,1.713143885448761949e+00,6.198826506967346495e-01,-1.782976875100670267e-01,4.485684087872413350e+00
1.860764741897583008e+00,3.489792204615812382e-02,1.717664321922467874e+00,6.359109658777001295e-01,6.291599888188432743e-01,4.675291905218818655e+00
1.880770683288574219e+00,4.779176039049994051e-02,1.738234990941177394e+00,6.530680784766194069e-01,1.426295064679708791e+00,4.751708062325885606e+00
1.900776386260986328e+00,6.101540222534683477e-02,1.774633017190529127e+00,6.688046043559395804e-01,2.211396276573045938e+00,4.693480119258254923e+00
1.920784235000610352e+00,7.451377144794571472e-02,1.826603679472037500e+00,6.805062224917409752e-01,2.982975119182475598e+00,4.502976637738617782e+00
1.940792322158813477e+00,8.818296124143018555e-02,1.893865070536558060e+00,6.859051919945258202e-01,3.739753611991211812e+00,3.905557749150716518e+00
1.960801362991333008e+00,1.018319270888778660e-01,1.976177572683002870e+00,6.786199409186954856e-01,4.487289274114972137e+00,3.056168069805269116e+00
1.980812549591064453e+00,1.151737567049350153e-01,2.073407986159277350e+00,6.554083156570389423e-01,5.230474235392748028e+00,1.951597817506796728e+00
2.000817298889160156e+00,1.278604061964942473e-01,2.185539162930872692e+00,6.134071922313183434e-01,5.975805425453581954e+00,2.806998459958481296e-01
2.020824909210205078e+00,1.394391460282657924e-01,2.312824114545767529e+00,5.450879312764337348e-01,6.743646293017438786e+00,-1.652978433255849922e+00
2.040832757949829102e+00,1.493657605358271467e-01,2.455813506449013417e+00,4.487879490364431456e-01,7.542706147243945836e+00,-3.877440875170911738e+00
2.060841560363769531e+00,1.570645986729660715e-01,2.615199049830203126e+00,3.230733935744656837e-01,8.377730340234254669e+00,-5.391947716982567584e+00
2.080850124359130859e+00,1.621139774270444756e-01,2.791021449385352238e+00,1.845994677979193033e-01,9.178243859407608340e+00,-6.000000000000000000e+00
2.100875854492187500e+00,1.644616762297979595e-01,2.981520302526577293e+00,5.353081486539204570e-02,9.836075575407269511e+00,-6.000000000000000000e+00
2.120865345001220703e+00,1.643973825494730867e-01,3.182877788228636096e+00,-5.629065821334702791e-02,1.025696931196841888e+01,-6.000000000000000000e+00
2.140873908996582031e+00,1.623572484883085976e-01,3.390011905835967010e+00,-1.441572358041354196e-01,1.041140679872564512e+01,-6.000000000000000000e+00
2.160882234573364258e+00,1.587644136855419219e-01,3.597567269819136104e+00,-2.121368493896204632e-01,1.030232495666639103e+01,-6.000000000000000000e+00
2.180890798568725586e+00,1.539746557995696208e-01,3.800558920770469307e+00,-2.647328943728427531e-01,9.962178719397025262e+00,-6.000000000000000000e+00
2.200911998748779297e+00,1.482404931788191271e-01,3.994832602052670545e+00,-3.075020363227701226e-01,9.438890195819299223e+00,-6.000000000000000000e+00
2.220906257629394531e+00,1.417055511934052214e-01,4.177218960034448259e+00,-3.455686122528649484e-01,8.780997345067456550e+00,-6.000000000000000000e+00
2.240914821624755859e+00,1.344233412314208287e-01,4.345448958650989901e+00,-3.827317169719588463e-01,8.029208443797244854e+00,-4.306314804887850123e+00
2.260922908782958984e+00,1.266622716282777839e-01,4.497611422866025777e+00,-3.941773938789769893e-01,7.182086021206327331e+00,-2.917246370961398050e+00
2.280931711196899414e+00,1.188488412900978591e-01,4.632428987338871096e+00,-3.883029681367077823e-01,6.299520910233811222e+00,-1.817725939953515280e+00
2.300941228866577148e+00,1.112658675033001282e-01,4.749582044999571373e+00,-3.712174005672513877e-01,5.418283167955223689e+00,-1.297949010301538308e+00
2.320946931838989258e+00,1.040403813693320939e-01,4.849293988623593954e+00,-3.524272387072842072e-01,4.556315325832271057e+00,-1.023360139939888169e+00
2.340955495834350586e+00,9.717469344989912439e-02,4.932002258108170167e+00,-3.350487803274959098e-01,3.718111840317876560e+00,-9.940402954809706149e-01
2.360963821411132812e+00,9.061170411406106739e-02,4.998163145271752761e+00,-3.219354928055274678e-01,2.901353850483173957e+00,-1.353007083336266625e+00
2.380974769592285156e+00,8.421545200452508484e-02,5.048110877736807112e+00,-3.180973839549431359e-01,2.096336600601570233e+00,-1.852319448165208771e+00
2.400980472564697266e+00,7.779325927852595579e-02,5.082008097758351717e+00,-3.242555336183458037e-01,1.295867641253999114e+00,-2.500593935343320862e+00
2.420989274978637695e+00,7.113645028393242309e-02,5.099871714368837239e+00,-3.412810546565029912e-01,4.926335998236274216e-01,-3.337328129151540868e+00
2.440996170043945312e+00,6.401284868883753976e-02,5.101570905984451620e+00,-3.706365767046005955e-01,-3.207344105829521563e-01,-4.222614007797877100e+00
2.461003780364990234e+00,5.618532773312905071e-02,5.086883218837192189e+00,-4.113837348124434468e-01,-1.146014453959773860e+00,-5.142029098564433909e+00
2.481013536453247070e+00,4.743758861338671917e-02,5.055577016617792019e+00,-4.623772363199987190e-01,-1.982320903402526202e+00,-5.753600817790945676e+00
2.501020908355712891e+00,3.763166069848086770e-02,5.007539763696136959e+00,-5.170160010906421633e-01,-2.818893951992558655e+00,-6.000000000000000000e+00
2.521028995513916016e+00,2.676517894873911910e-02,4.942871437821056979e+00,-5.683523249793482890e-01,-3.645365538475559664e+00,-6.000000000000000000e+00
2.541036605834960938e+00,1.494889199740218402e-02,4.861826824604491115e+00,-6.119891660857668114e-01,-4.456528795627396455e+00,-6.000000000000000000e+00
2.561046361923217773e+00,2.337029608544706830e-03,4.764716519040799625e+00,-6.479156211809612431e-01,-5.251678841301300693e+00,-6.000000000000000000e+00
2.581054210662841797e+00,-1.091701521168470315e-02,4.651882976947664616e+00,-6.762414932538555190e-01,-6.028225758915588983e+00,-5.994402997400012367e+00
2.601062059402465820e+00,-2.466324006762794438e-02,4.523745049033792931e+00,-6.972190802824860256e-01,-6.780977735351127578e+00,-4.176424722887977836e+00
