time,cart_pos,pend_pos,cart_vel,pend_vel,force
3.814697265625000000e-06,0.000000000000000000e+00,3.141592653589793116e+00,0.000000000000000000e+00,0.000000000000000000e+00,2.873646979563689919e-04
1.001501083374023438e-02,0.000000000000000000e+00,3.141592653589793116e+00,0.000000000000000000e+00,0.000000000000000000e+00,7.601420468097670469e-01
2.003264427185058594e-02,0.000000000000000000e+00,3.141592653589793116e+00,0.000000000000000000e+00,0.000000000000000000e+00,1.526321696904901382e+00
3.004264831542968750e-02,4.539062499999999369e-05,3.141592653589793116e+00,4.534526140288197386e-03,0.000000000000000000e+00,2.058026636220084082e+00
4.005551338195800781e-02,2.042578124999999581e-04,3.141592653589793116e+00,1.586630664095053933e-02,0.000000000000000000e+00,2.347604700062122962e+00
5.006909370422363281e-02,4.992968749999999577e-04,3.140058672801907313e+00,2.946389333333333457e-02,-1.531900417750612642e-01,2.630298283786506541e+00
6.008219718933105469e-02,9.758984374999998780e-04,3.136990711226136153e+00,4.759778656126481544e-02,-3.063946737726387926e-01,2.890195220435934242e+00
7.009983062744140625e-02,1.634062499999999665e-03,3.133922749650364992e+00,6.570055358545348612e-02,-3.062561227384935636e-01,3.156419743207272699e+00
8.011031150817871094e-02,2.451093749999999714e-03,3.129320807286708028e+00,8.161758258508586272e-02,-4.597124172638163420e-01,3.403130982495165657e+00
9.012389183044433594e-02,3.495078124999999487e-03,3.126252845710936867e+00,1.042568533333333158e-01,-3.063800835500781750e-01,3.643935068073643091e+00
1.001369953155517578e-01,4.766015624999998986e-03,3.118582941771508299e+00,1.269274308300394893e-01,-7.659866844316635115e-01,3.861348609647298424e+00
1.101503372192382812e-01,6.286601562499999005e-03,3.112447018619965977e+00,1.518559889521179096e-01,-6.127747569753224655e-01,4.063968423048846645e+00
1.201643943786621094e-01,8.056835937499999545e-03,3.103243133892652050e+00,1.767749421456121794e-01,-9.190964841510336214e-01,4.247088862235054663e+00
1.301777362823486328e-01,1.012210937499999873e-02,3.094039249165338124e+00,2.062521640991451244e-01,-9.191621354630279406e-01,4.419732371736837528e+00
1.401915550231933594e-01,1.245972656249999880e-02,3.083301383650138838e+00,2.334391352586843160e-01,-1.072304761359549108e+00,4.560893806304366471e+00
1.502048969268798828e-01,1.511507812499999874e-02,3.072563518134939109e+00,2.651813538417581162e-01,-1.072355824706880734e+00,4.707382642553095131e+00
1.602184772491455078e-01,1.808816406249999856e-02,3.058757691043968663e+00,2.969053866666666597e-01,-1.378710375975374047e+00,4.788564006128782857e+00
1.702318191528320312e-01,2.135628906249999875e-02,3.044951863952997773e+00,3.263770508821638994e-01,-1.378743203194541911e+00,4.881984020916340761e+00
1.802458763122558594e-01,2.491945312499999760e-02,3.029612056074141524e+00,3.558162297033473642e-01,-1.531827473585026356e+00,4.941478951140612530e+00
1.902592182159423828e-01,2.880035156249999631e-02,3.012738267407399029e+00,3.875727479225694605e-01,-1.685130581682247497e+00,4.966974361261480730e+00
2.002732753753662109e-01,3.302167968749999266e-02,2.995864478740656978e+00,4.215402466549208471e-01,-1.685010220943546688e+00,5.000128415109217350e+00
2.102866172790527344e-01,3.749265624999999214e-02,2.978990690073914926e+00,4.465019376651824246e-01,-1.685130581682203088e+00,4.980709730749052433e+00
2.203004360198974609e-01,4.225867187499999372e-02,2.960582920619287517e+00,4.759438680031429225e-01,-1.838236733759233354e+00,4.943250579938652578e+00
2.303137779235839844e-01,4.729703124999999619e-02,2.940641170376774305e+00,5.031646201100028470e-01,-1.991517960169864487e+00,4.880633967819139940e+00
2.403273582458496094e-01,5.260773437499999261e-02,2.922233400922146451e+00,5.303500799999996129e-01,-1.838280501300557646e+00,4.807825597122269201e+00
2.503411769866943359e-01,5.819078124999998991e-02,2.902291650679633239e+00,5.575342453751098715e-01,-1.991423128239188101e+00,4.705999364754402947e+00
2.603547573089599609e-01,6.404617187499998809e-02,2.883883881225005386e+00,5.847449599999998693e-01,-1.838280501300557646e+00,4.583727731870367528e+00
2.703680992126464844e-01,7.012851562499998470e-02,2.863942130982492174e+00,6.074239558084713053e-01,-1.991517960169864487e+00,4.424990183442106151e+00
2.803819179534912109e-01,7.639242187499999115e-02,2.845534361527864320e+00,6.255262265184168280e-01,-1.838236733759277763e+00,4.277178585286877777e+00
2.903954982757568359e-01,8.286058593749999479e-02,2.827126592073236466e+00,6.459392000000003797e-01,-1.838280501300557646e+00,4.082845587530109732e+00
3.004090785980224609e-01,8.944222656249999071e-02,2.808718822618609057e+00,6.572714666666662486e-01,-1.838280501300513459e+00,3.887315590819406363e+00
3.104226589202880859e-01,9.618273437499998135e-02,2.791845033951867006e+00,6.731366399999990646e-01,-1.685090459525496520e+00,3.668857801675111663e+00
3.204369544982910156e-01,1.030594140624999794e-01,2.776505226073010313e+00,6.866863109777870955e-01,-1.531791004107329046e+00,3.444207482279407095e+00
3.304505348205566406e-01,1.100041796874999811e-01,2.762699398982039867e+00,6.935347200000001600e-01,-1.378710375975374047e+00,3.206048400548976218e+00
3.404633998870849609e-01,1.170170312499999865e-01,2.750427552678954779e+00,7.003841074362460173e-01,-1.225607877620187081e+00,2.943452592199228057e+00
3.504779338836669922e-01,1.240525781249999793e-01,2.738155706375869691e+00,7.025336253690117605e-01,-1.225403629092824298e+00,2.661695227847030054e+00
3.604907989501953125e-01,1.310881249999999720e-01,2.728951821648555764e+00,7.026507226706661946e-01,-9.192059082151513572e-01,2.384697525518637118e+00
3.705055713653564453e-01,1.381236718749999925e-01,2.721281917709127640e+00,7.025169003690057146e-01,-7.658590351805532048e-01,2.084641314069159979e+00
3.805181980133056641e-01,1.451592187499999853e-01,2.716679975345470677e+00,7.026674540432414906e-01,-4.596138980773372684e-01,1.790523273512852676e+00
3.905317783355712891e-01,1.521493749999999756e-01,2.712078032981813713e+00,6.980676266666656637e-01,-4.595701253251394114e-01,1.440266073853389228e+00
4.005455970764160156e-01,1.590260546874999736e-01,2.712078032981813713e+00,6.867190095473915123e-01,0.000000000000000000e+00,1.141286157584609384e+00
4.105587005615234375e-01,1.657665624999999643e-01,2.713612013769699072e+00,6.731686956521729659e-01,1.531973368862972196e-01,7.840238725395649588e-01
4.205729961395263672e-01,1.723482031249999880e-01,2.718213956133356035e+00,6.572245220579505665e-01,4.595373012321942729e-01,4.375067141202341192e-01
4.305863380432128906e-01,1.787709765624999614e-01,2.725883860072784159e+00,6.414215652753610941e-01,7.659684462191752585e-01,8.167214455320584432e-02
4.405999183654785156e-01,1.849894921874999654e-01,2.736621725587983889e+00,6.210082133333337806e-01,1.072330292425340170e+00,-2.919116827376981860e-01
4.506134986877441406e-01,1.915711328124999613e-01,2.750427552678954779e+00,6.572714666666662486e-01,1.378710375975418234e+00,-6.843276851129245220e-01
4.606277942657470703e-01,1.972676562499999786e-01,2.767301341345696830e+00,5.688391552984327637e-01,1.684970104518030976e+00,-1.054641837427210405e+00
4.706408977508544922e-01,2.026918359374999812e-01,2.785709110800324240e+00,5.417081422924904244e-01,1.838368042635877053e+00,-1.462088659459551243e+00
4.806544780731201172e-01,2.077528906249999641e-01,2.808718822618609057e+00,5.054190933333315705e-01,2.297850626625697057e+00,-1.842764066439730897e+00
4.906680583953857422e-01,2.124508203124999828e-01,2.834796496012665035e+00,4.691558400000018780e-01,2.604230710175775343e+00,-2.243122329528986825e+00
5.006821155548095703e-01,2.167175390624999642e-01,2.863942130982492174e+00,4.260729374791658031e-01,2.910472199811576566e+00,-2.640659654965225478e+00
5.106952190399169922e-01,2.205303515624999766e-01,2.896155727528090473e+00,3.807822924901198003e-01,3.217144074612817928e+00,-3.030306627588511326e+00
5.207087993621826172e-01,2.238665624999999770e-01,2.931437285649460378e+00,3.331686400000000159e-01,3.523370960826054166e+00,-3.417020215386132875e+00
5.307223796844482422e-01,2.266807812499999630e-01,2.971320786134486802e+00,2.810402133333319563e-01,3.982941086151149168e+00,-3.781203836512343486e+00
5.407359600067138672e-01,2.289503124999999750e-01,3.014272248195284831e+00,2.266453333333345310e-01,4.289321169701271863e+00,-4.129794616209827574e+00
5.507609844207763672e-01,2.306524609374999701e-01,3.060291671831854021e+00,1.697899543378990628e-01,4.590455018943985444e+00,-4.476715871416283576e+00
5.607638359069824219e-01,2.317418359374999737e-01,3.109379057044194816e+00,1.089064454772974561e-01,4.907339200230290466e+00,-4.770657677349757542e+00
5.707776546478271484e-01,2.321957421874999705e-01,3.163068384620192131e+00,4.532798742887042542e-02,5.361523806797833913e+00,-5.042124474424717562e+00
5.807921886444091797e-01,2.320822656249999782e-01,3.218291692984075247e+00,-1.133118750595104272e-02,5.514316330917732323e+00,-5.305362331572029966e+00
5.908048152923583984e-01,2.314694921874999589e-01,3.275048982135843723e+00,-6.120006857796173733e-02,5.668571409620419388e+00,-5.505940059294665900e+00
6.008181571960449219e-01,2.304028124999999705e-01,3.334874232863383803e+00,-1.065258429962606668e-01,5.974553880509637871e+00,-5.698794200923614106e+00
6.108319759368896484e-01,2.289049218749999726e-01,3.394699483590923883e+00,-1.495823585152732393e-01,5.974269384717608489e+00,-5.823958596714338576e+00
6.208453178405761719e-01,2.270666015624999701e-01,3.454524734318463963e+00,-1.835870911212174328e-01,5.974553880509637871e+00,-5.926802966921496996e+00
6.308593750000000000e-01,2.248651562499999756e-01,3.515883965833889402e+00,-2.198355049759529722e-01,6.127309894340149832e+00,-5.993853657609313323e+00
6.408724784851074219e-01,2.223459765624999640e-01,3.575709216561429482e+00,-2.515883003952580910e-01,5.974696138566700121e+00,-5.991858182882429773e+00
6.508858203887939453e-01,2.195317578124999780e-01,3.635534467288969562e+00,-2.810469049263063512e-01,5.974553880509637871e+00,-5.982334706689770520e+00
6.608994007110595703e-01,2.163771093749999597e-01,3.693825737228623840e+00,-3.150370133333351697e-01,5.821221587451707258e+00,-5.925885757520106267e+00
6.709129810333251953e-01,2.129274218749999670e-01,3.750583026380392759e+00,-3.445009066666659403e-01,5.668031545676690541e+00,-5.851545699093923858e+00
6.809267997741699219e-01,2.092053906249999595e-01,3.807340315532161235e+00,-3.716894969167408025e-01,5.667896595757698996e+00,-5.754474801193398825e+00
6.909403800964355469e-01,2.052564062499999675e-01,3.859495662320273190e+00,-3.943628799999991941e-01,5.208461420351550686e+00,-5.626361668112344283e+00
7.009539604187011719e-01,2.010123828124999734e-01,3.911651009108385146e+00,-4.238267733333327403e-01,5.208461420351550686e+00,-5.475345962965421975e+00
7.109673023223876953e-01,1.965414062499999670e-01,3.960738394320725497e+00,-4.465019376651831462e-01,4.902198055802756471e+00,-5.317580451347176940e+00
7.209811210632324219e-01,1.918888671874999785e-01,4.006757817957295131e+00,-4.646118711459239492e-01,4.595591834398194742e+00,-5.152336518772995255e+00
7.309947013854980469e-01,1.870093749999999777e-01,4.049709280018092272e+00,-4.872874666666667243e-01,4.289321169701183045e+00,-4.983056404640166193e+00
7.410087585449218750e-01,1.819710156249999822e-01,4.088058799715233782e+00,-5.031286814913571437e-01,3.829568683962654596e+00,-4.815300377960938683e+00
7.510221004486083984e-01,1.767510937499999768e-01,4.124874338624489489e+00,-5.212966784923456220e-01,3.676648541852111762e+00,-4.633096676038824135e+00
7.610359191894531250e-01,1.713723046874999767e-01,4.157087935170087789e+00,-5.371366510321182730e-01,3.216914284078691733e+00,-4.466329179921029180e+00
7.710492610931396484e-01,1.658573437499999692e-01,4.186233570139914484e+00,-5.507612733636522151e-01,2.910680095632848019e+00,-4.294686928087530831e+00
7.810626029968261719e-01,1.601835156249999670e-01,4.210777262746084659e+00,-5.666268244482013383e-01,2.451099027901378236e+00,-4.128203807050033092e+00
7.910761833190917969e-01,1.543735156249999851e-01,4.232252993776484118e+00,-5.802120533333314789e-01,2.144660584850680340e+00,-3.958402789988048731e+00
8.010902404785156250e-01,1.484500390624999833e-01,4.249126782443226169e+00,-5.915161525641637885e-01,1.685010220943546688e+00,-3.795026886637710373e+00
8.111040592193603516e-01,1.423903906249999740e-01,4.261398628746311701e+00,-6.051286321754253406e-01,1.225491155839548041e+00,-3.625021232124803205e+00
8.211176395416259766e-01,1.362626562499999749e-01,4.270602513473624740e+00,-6.119423999999998864e-01,9.191402506501902270e-01,-3.447378602655687185e+00
8.311307430267333984e-01,1.300214453124999836e-01,4.275204455837282147e+00,-6.233043478260861248e-01,4.595920106590246634e-01,-3.271755528025149129e+00
8.411448001861572266e-01,1.237121484374999886e-01,4.276738436625167950e+00,-6.300440245702580988e-01,1.531827473585203880e-01,-3.067646498770564722e+00
8.511581420898437500e-01,1.173120703124999886e-01,4.273670475049396345e+00,-6.391550579775708840e-01,-3.063873784877055861e-01,-2.870254668050672642e+00
8.611719608306884766e-01,1.108439062499999850e-01,4.266000571109968220e+00,-6.459238208614084265e-01,-7.659319723996842466e-01,-2.642445405928131930e+00
8.711855411529541016e-01,1.043076562499999915e-01,4.253728724806882688e+00,-6.527385599999993016e-01,-1.225520334200401296e+00,-2.398367916461717986e+00
8.811991214752197266e-01,9.777140624999998419e-02,4.236854936140140637e+00,-6.527385600000007448e-01,-1.685090459525496520e+00,-2.146101111177277865e+00
8.912129402160644531e-01,9.128054687499999320e-02,4.216913185897627869e+00,-6.481902202328506668e-01,-1.991423128239143692e+00,-1.823647892917636071e+00
9.012265205383300781e-01,8.483507812499999079e-02,4.192369493291456806e+00,-6.436727466666669617e-01,-2.451040668400802591e+00,-1.512887211294961620e+00
9.112401008605957031e-01,7.850308593749999453e-02,4.161689877533744308e+00,-6.323404799999996495e-01,-3.063800835500870345e+00,-1.160930431013467601e+00
9.212534427642822266e-01,7.230726562499999177e-02,4.127942300200260206e+00,-6.187564922974359005e-01,-3.370261163364406176e+00,-7.479527442574843699e-01
9.312672615051269531e-01,6.624761718749999639e-02,4.088058799715233782e+00,-6.051286321754238973e-01,-3.982846256478376201e+00,-3.542820514996069536e-01
9.412815570831298828e-01,6.041492187499999250e-02,4.045107337654435753e+00,-5.824369040306648371e-01,-4.289014811500450719e+00,1.614654781614279500e-01
9.512951374053955078e-01,5.480917968749999397e-02,3.999087914017866563e+00,-5.598139733333331591e-01,-4.595701253251349705e+00,6.799364899835447229e-01
9.613084793090820312e-01,4.956656249999999431e-02,3.946932567229754607e+00,-5.235631857901378305e-01,-5.208585434290462501e+00,1.217388833425468109e+00
9.713220596313476562e-01,4.473246093749999597e-02,3.890175278077986132e+00,-4.827545599999998327e-01,-5.668031545676646132e+00,1.812123438058744984e+00
9.813351631164550781e-01,4.037496093749999571e-02,3.828816046562560249e+00,-4.351797628458498046e-01,-6.127893475453041638e+00,2.413148391433849405e+00
9.913489818572998047e-01,3.647136718749999229e-02,3.761320891895592045e+00,-3.898206918882887173e-01,-6.740201357117292957e+00,3.052155233380904331e+00
1.001362562179565430e+00,3.315785156249999310e-02,3.690757775652852679e+00,-3.309021866666665979e-01,-7.046741921652063922e+00,3.739284190134154251e+00
1.011376142501831055e+00,3.047980468749999713e-02,3.612524755470684745e+00,-2.674414933333329469e-01,-7.812692130527326029e+00,4.355506477538124699e+00
1.021389961242675781e+00,2.850531249999999767e-02,3.531223773712746095e+00,-1.971767453155876815e-01,-8.118878907436705816e+00,5.058709974922569685e+00
1.031403303146362305e+00,2.732515624999999615e-02,3.443786868803264234e+00,-1.178583794852259836e-01,-8.732040286898721249e+00,5.637179677044863446e+00
1.041417121887207031e+00,2.693933593749999605e-02,3.351748021530125854e+00,-3.852878931454013778e-02,-9.191183668796300665e+00,5.667382258731041844e+00
1.051430702209472656e+00,2.727976562499999716e-02,3.255107231893330511e+00,3.399680000000011165e-02,-9.650972631827839265e+00,5.689141970830365658e+00
1.061444997787475586e+00,2.816488281249999656e-02,3.155398480680764006e+00,8.838536675951712274e-02,-9.956641526697438849e+00,5.684586168854312227e+00
1.071458339691162109e+00,2.952660156249999751e-02,3.052621767892425897e+00,1.359904378675683700e-01,-1.026397717933707199e+01,5.645736463181299847e+00
1.081475973129272461e+00,3.125144531249999386e-02,2.948311074316202429e+00,1.721807611204984878e-01,-1.041270817310917884e+01,5.629234137032255170e+00
1.091485261917114258e+00,3.322593749999999679e-02,2.845534361527864320e+00,1.972659825639562770e-01,-1.026813342753984237e+01,5.654292007094318784e+00
1.101498842239379883e+00,3.540468749999999692e-02,2.741223667951640852e+00,2.175795200000000262e-01,-1.041692284070305696e+01,5.630500691990241613e+00
1.111512660980224609e+00,3.776499999999999302e-02,2.639980935951188545e+00,2.357055346301274723e-01,-1.011030203567593944e+01,5.669349403108324026e+00
1.121526241302490234e+00,4.023878906249999526e-02,2.538738203950736239e+00,2.470434133333335447e-01,-1.011054275715297912e+01,5.662534126985507399e+00
1.131539821624755859e+00,4.253101562499999461e-02,2.451301299041254822e+00,2.289117866666665890e-01,-8.731832381177561331e+00,5.823722671169027976e+00
1.141553640365600586e+00,4.511828124999999606e-02,2.354660509404459034e+00,2.583695283445633928e-01,-9.650742852236163571e+00,5.714139456209919921e+00
1.151567935943603516e+00,4.804597656249999515e-02,2.253417777404006728e+00,2.923515977430182766e-01,-1.010982062710818496e+01,5.657333196377380524e+00
1.161580324172973633e+00,5.081480468749999257e-02,2.164446891706639953e+00,2.765402281223952596e-01,-8.886080289653726538e+00,5.758979946773700398e+00
1.171594619750976562e+00,5.362902343749999245e-02,2.081611929160815055e+00,2.810201404661571423e-01,-8.271671422179451838e+00,5.798647054725413419e+00
1.181607723236083984e+00,5.657941406249999278e-02,2.000310947402875961e+00,2.946529644268774950e-01,-8.119458854975260209e+00,5.802005580075483948e+00
1.191621303558349609e+00,5.964328124999999231e-02,1.923611908008594051e+00,3.059711999999999432e-01,-7.659502088752242699e+00,5.749979696528198403e+00
1.201635122299194336e+00,6.284332031249999229e-02,1.851514810977968883e+00,3.195623113735387433e-01,-7.199760540557112343e+00,5.694043841480782575e+00
1.211648464202880859e+00,6.615683593749999147e-02,1.784019656311000679e+00,3.309100654777493711e-01,-6.740522326728812352e+00,5.504966623249528901e+00
1.221662044525146484e+00,6.967460937499998785e-02,1.721126444007689438e+00,3.513002666666663054e-01,-6.280791712776846225e+00,5.188929606549303131e+00
1.231676578521728516e+00,7.335124999999999285e-02,1.662835174068034938e+00,3.671304751928392562e-01,-5.820667238190949000e+00,4.873442680137473282e+00
1.241689443588256836e+00,7.718675781249999257e-02,1.610679827279923204e+00,3.830579746172345645e-01,-5.208833479885806028e+00,4.677527677923193572e+00
1.251703023910522461e+00,8.124921874999999072e-02,1.561592442067582631e+00,4.056951466666665063e-01,-4.902081336801450639e+00,4.479766243795457292e+00
1.261716604232788086e+00,8.544785156249998237e-02,1.517106999218899022e+00,4.192938666666658487e-01,-4.442511211476310784e+00,4.329562737235413294e+00
1.271729946136474609e+00,8.989613281249998755e-02,1.477223498733872376e+00,4.442354303673902161e-01,-3.983035920339751179e+00,4.219983417593230257e+00
1.281744003295898438e+00,9.452597656249998870e-02,1.443475921400388273e+00,4.623344640731394950e-01,-3.370020441887093376e+00,4.104582103124440273e+00
1.291757583618164062e+00,9.936007812499998704e-02,1.414330286430561134e+00,4.827545599999998327e-01,-2.910610793725853629e+00,4.077521023360350938e+00
1.301771402359008789e+00,1.044438281249999850e-01,1.389786593824390959e+00,5.076734592033520510e-01,-2.450982311679007264e+00,4.047914067301434216e+00
