time,cart_pos,pend_pos,cart_vel,pend_vel,force
3.814697265625000000e-06,0.000000000000000000e+00,3.141592653589793116e+00,0.000000000000000000e+00,0.000000000000000000e+00,2.269057426087421419e-04
1.000213623046875000e-02,0.000000000000000000e+00,3.141592653589793116e+00,0.000000000000000000e+00,0.000000000000000000e+00,5.999760756032949116e-01
2.000188827514648438e-02,0.000000000000000000e+00,3.141592653589793116e+00,0.000000000000000000e+00,0.000000000000000000e+00,1.205528345672008728e+00
3.000187873840332031e-02,4.539062499999999369e-05,3.141592653589793116e+00,4.539066828791454324e-03,0.000000000000000000e+00,1.698200778471153249e+00
4.000234603881835938e-02,1.361718749999999811e-04,3.140058672801907313e+00,9.077700798664916498e-03,-1.533909108249510711e-01,2.023621952962535442e+00
5.000162124633789062e-02,3.404296874999999663e-04,3.140058672801907313e+00,2.042726180257510571e-02,0.000000000000000000e+00,2.371040418458413956e+00
6.000137329101562500e-02,6.808593749999999325e-04,3.136990711226136153e+00,3.404381288445949144e-02,-3.068037649397568623e-01,2.667565863745467336e+00
7.000112533569335938e-02,1.202851562499999928e-03,3.135456730438250350e+00,5.220051308950455354e-02,-1.534018824699006356e-01,2.995109815025692068e+00
8.000087738037109375e-02,1.883710937499999752e-03,3.132388768862479189e+00,6.808762576891896900e-02,-3.068037649397568623e-01,3.293033135385283305e+00
9.000110626220703125e-02,2.791523437499999517e-03,3.127786826498822226e+00,9.077917222963949317e-02,-4.601837035966015454e-01,3.564740830392233217e+00
1.000013351440429688e-01,3.903593749999999512e-03,3.121650903347279904e+00,1.112044859813084152e-01,-6.135782714621058620e-01,3.837035942821200862e+00
1.100010871887207031e-01,5.265312499999999160e-03,3.115514980195737138e+00,1.361752515378379380e-01,-6.136075298795581334e-01,4.093660022563988754e+00
1.200013160705566406e-01,6.876679687499998896e-03,3.107845076256309014e+00,1.611330307076101198e-01,-7.669728393276544764e-01,4.324110131867477058e+00
1.300015449523925781e-01,8.760390624999999515e-03,3.100175172316880889e+00,1.883667823765020621e-01,-7.669728393276544764e-01,4.563143422186035636e+00
1.400012969970703125e-01,1.096183593749999914e-02,3.089437306801681160e+00,2.201499899861713294e-01,-1.073813177289215659e+00,4.725625499467050794e+00
1.500012874603271484e-01,1.348101562499999864e-02,3.078699441286481875e+00,2.519182089979257189e-01,-1.073787575563560637e+00,4.915289643220967619e+00
1.600012779235839844e-01,1.631792968749999628e-02,3.066427594983396787e+00,2.836916767994657196e-01,-1.227185800644088332e+00,5.060538209027338752e+00
1.700015068054199219e-01,1.949527343749999850e-02,3.051087787104540094e+00,3.177271028037385592e-01,-1.533945678655353362e+00,5.157990829319069270e+00
1.800014972686767578e-01,2.299035156249999712e-02,3.037281960013569648e+00,3.495081458169418953e-01,-1.380584025724571617e+00,5.301195321227509361e+00
1.900019645690917969e-01,2.682585937499999684e-02,3.020408171346827597e+00,3.835328587435927750e-01,-1.687300019074284174e+00,5.335785087547903593e+00
2.000017166137695312e-01,3.100179687499999420e-02,3.003534382680085546e+00,4.176041047160361508e-01,-1.687420707168729495e+00,5.395014277427224947e+00
2.100021839141845703e-01,3.554085937499999737e-02,2.985126613225457692e+00,4.538850399332462482e-01,-1.840690929899235329e+00,5.411813289593544241e+00
2.200019359588623047e-01,4.039765624999999694e-02,2.965184862982944480e+00,4.856917304849553974e-01,-1.994224472108486301e+00,5.381260525285426866e+00
2.300016880035400391e-01,4.557218749999999291e-02,2.945243112740430824e+00,5.174659558437838536e-01,-1.994224472108530710e+00,5.366909436992798099e+00
2.400016784667968750e-01,5.110984374999999469e-02,2.923767381710032254e+00,5.537661531125577241e-01,-2.147575151127121273e+00,5.282525053644011592e+00
2.500016689300537109e-01,5.635246093749999435e-02,2.905359612255404400e+00,5.242622187254130095e-01,-1.840778700966154702e+00,5.249588234796915387e+00
2.600016593933105469e-01,6.243480468749999096e-02,2.883883881225005386e+00,6.082349550580546937e-01,-2.147575151127165682e+00,5.102878471004267169e+00
2.700023651123046875e-01,6.874410156249999293e-02,2.862408150194606371e+00,6.308851647356126247e-01,-2.147421555421892503e+00,4.953652661240422361e+00
2.800023555755615234e-01,7.530304687499998761e-02,2.842466399952093159e+00,6.558951567603646948e-01,-1.994176926046637988e+00,4.819929227090987034e+00
2.900023460388183594e-01,8.211164062499998195e-02,2.820990668921694144e+00,6.808600243187177270e-01,-2.147575151127165682e+00,4.615915707462613149e+00
3.000020980834960938e-01,8.912449218749998736e-02,2.801048918679180932e+00,7.013025454198660302e-01,-1.994224472108486301e+00,4.424891923345696476e+00
3.100020885467529297e-01,9.631890624999998873e-02,2.781107168436667276e+00,7.194420923634458065e-01,-1.994176926046682397e+00,4.212765660278230406e+00
3.200023174285888672e-01,1.036494921874999836e-01,2.764233379769925225e+00,7.330418157543385771e-01,-1.687340246520857567e+00,3.992318110620990179e+00
3.300023078918457031e-01,1.110935546874999846e-01,2.745825610315297816e+00,7.444069599217987276e-01,-1.840778700966110293e+00,3.714200779655978835e+00
3.400022983551025391e-01,1.186510937499999779e-01,2.730485802436441123e+00,7.557546269937766015e-01,-1.533982250805143721e+00,3.473168133862897911e+00
3.500022888183593750e-01,1.262767187499999888e-01,2.715145994557584874e+00,7.625632272369655684e-01,-1.533982250805099312e+00,3.171613773835744610e+00
3.600027561187744141e-01,1.339704296874999756e-01,2.702874148254499787e+00,7.693351426868505483e-01,-1.227127286599475342e+00,2.902781235758175260e+00
3.700022697448730469e-01,1.417095312499999926e-01,2.692136282739300057e+00,7.739477990510496008e-01,-1.073838780235671253e+00,2.585781551864089423e+00
3.800024986267089844e-01,1.494486328124999819e-01,2.682932398011986574e+00,7.738924432576758106e-01,-9.203674071931586820e-01,2.262580906407611003e+00
3.900024890899658203e-01,1.571650390624999838e-01,2.676796474860443809e+00,7.716413608945476010e-01,-6.135929003220663702e-01,1.949195390880783307e+00
4.000027179718017578e-01,1.648360546874999832e-01,2.673728513284672648e+00,7.670840053404538450e-01,-3.067891357310529310e-01,1.607498206313022315e+00
4.100029468536376953e-01,1.723935937499999627e-01,2.672194532496786845e+00,7.557366088117469793e-01,-1.533945678655486700e-01,1.250119597364158563e+00
4.200024604797363281e-01,1.798603515624999649e-01,2.672194532496786845e+00,7.467120993776974469e-01,0.000000000000000000e+00,8.701615852419037900e-01
4.300024509429931641e-01,1.871455468749999851e-01,2.676796474860443809e+00,7.285202260210305036e-01,4.601946752415386754e-01,5.105986295009021791e-01
4.400031566619873047e-01,1.942491796874999677e-01,2.682932398011986574e+00,7.103131531016050326e-01,6.135490158348454459e-01,1.187514489772782400e-01
4.500029087066650391e-01,2.011258593749999657e-01,2.693670263527185860e+00,6.876850202660815814e-01,1.073813177289171250e+00,-2.719404104729705174e-01
4.600028991699218750e-01,2.077755859374999792e-01,2.705942109830270947e+00,6.649732904179495030e-01,1.227185800644088332e+00,-6.925829882273769611e-01
4.700026512145996094e-01,2.141529687499999779e-01,2.722815898497012999e+00,6.377540947022076745e-01,1.687420707168729495e+00,-1.094059621881206201e+00
4.800033569335937500e-01,2.201672265624999569e-01,2.742757648739526211e+00,6.013833404853838882e-01,1.994034301463170067e+00,-1.520284676411056468e+00
4.900028705596923828e-01,2.258183593749999718e-01,2.765767360557811028e+00,5.651407682220276341e-01,2.301083100504977885e+00,-1.946078570489456983e+00
5.000033378601074219e-01,2.310382812499999772e-01,2.791845033951867006e+00,5.219677959232333908e-01,2.607645484023902060e+00,-2.379165077890752045e+00
5.100028514862060547e-01,2.358269921874999731e-01,2.822524649709579947e+00,4.788943859230820332e-01,3.068110800673289340e+00,-2.798042082170580702e+00
5.200030803680419922e-01,2.401391015624999570e-01,2.856272227043064049e+00,4.312010680907861215e-01,3.374680493041715135e+00,-3.224838969597293215e+00
5.300033092498779297e-01,2.439292187499999542e-01,2.894621746740204671e+00,3.790030440587447425e-01,3.834864196638272382e+00,-3.625347842216544603e+00
5.400035381317138672e-01,2.471746484374999775e-01,2.936039228013117341e+00,3.245355407209636334e-01,4.141653332369414464e+00,-4.038244951464057486e+00
5.500030517578125000e-01,2.498073046874999537e-01,2.982058651649686531e+00,2.632784301757206680e-01,4.602166201009911362e+00,-4.399408713685842187e+00
5.600032806396484375e-01,2.518271874999999382e-01,3.031146036862026882e+00,2.019836582109463818e-01,4.908626171697024532e+00,-4.761005607345566659e+00
5.700035095214843750e-01,2.532116015624999439e-01,3.083301383650138838e+00,1.384382376502008294e-01,5.215415307428121316e+00,-5.107717242692376480e+00
5.800030231475830078e-01,2.539151562499999404e-01,3.140058672801907313e+00,7.035889082282219265e-02,5.676004981245537984e+00,-5.363457481515158776e+00
5.900034904479980469e-01,2.539605468749999706e-01,3.199883923529447394e+00,4.538850399335481005e-03,5.982245522172470409e+00,-5.632302844389934116e+00
6.000032424926757812e-01,2.534839453124999586e-01,3.261243155044873276e+00,-4.766133803824448151e-02,6.136075298795404365e+00,-5.790719459311459261e+00
6.100037097930908203e-01,2.525080468749999474e-01,3.324136367348184518e+00,-9.758528358564899641e-02,6.289027343822327865e+00,-5.844053177840861757e+00
6.200034618377685547e-01,2.510782421874999670e-01,3.388563560439381561e+00,-1.429840141147279142e-01,6.442879063735160727e+00,-5.894201966597020892e+00
6.300036907196044922e-01,2.492853124999999670e-01,3.454524734318463963e+00,-1.792888651535380629e-01,6.595966418217881433e+00,-5.867712484257433303e+00
6.400034427642822266e-01,2.471746484374999775e-01,3.518951927409661007e+00,-2.110716398836477992e-01,6.442879063735160727e+00,-5.872460165313183822e+00
6.500034332275390625e-01,2.447689453124999581e-01,3.583379120500857606e+00,-2.405705419259490663e-01,6.442725453381452638e+00,-5.859000273899470201e+00
6.600041389465332031e-01,2.420682031249999644e-01,3.647806313592054650e+00,-2.700551604443802711e-01,6.442264666265677953e+00,-5.841501782957172040e+00
6.700036525726318359e-01,2.390951171874999559e-01,3.710699525895365891e+00,-2.973230547674122204e-01,6.289627141380213615e+00,-5.839311476049910965e+00
6.800038814544677734e-01,2.358496874999999604e-01,3.772058757410791774e+00,-3.245355407209608578e-01,6.135782714621324629e+00,-5.836273938382359638e+00
6.900038719177246094e-01,2.323773046874999804e-01,3.830350027350446052e+00,-3.472386124025443332e-01,5.829132553059430677e+00,-5.848909485478160697e+00
7.000041007995605469e-01,2.286325781249999578e-01,3.887107316502214971e+00,-3.744640854472652824e-01,5.675599011024723417e+00,-5.807838798149048465e+00
7.100038528442382812e-01,2.246382031249999633e-01,3.942330624866097644e+00,-3.994474045109908111e-01,5.522467768915801933e+00,-5.632968645312049105e+00
7.200040817260742188e-01,2.204395703124999717e-01,3.994485971654209600e+00,-4.198536715620819204e-01,5.215415307428121316e+00,-5.472286889812756350e+00
7.300040721893310547e-01,2.159912890624999804e-01,4.043573356866549950e+00,-4.448285492215617309e-01,4.908743202576353326e+00,-5.293485957441567358e+00
7.400043010711669922e-01,2.113614453124999792e-01,4.089592780503119585e+00,-4.629737783711616594e-01,4.601837035966015677e+00,-5.106267991235311499e+00
7.500038146972656250e-01,2.065046484374999658e-01,4.132544242563917614e+00,-4.857033108414214317e-01,4.295355120942596194e+00,-4.915851927762423301e+00
7.600040435791015625e-01,2.014662890624999703e-01,4.170893762261058235e+00,-5.038244058744988374e-01,3.834864196638272382e+00,-4.745178733306116392e+00
7.700042724609375000e-01,1.962463671874999649e-01,4.206175320382428140e+00,-5.219802403204277796e-01,3.528075060907263971e+00,-4.561732234232682259e+00
7.800040245056152344e-01,1.908448828124999774e-01,4.238388916928026440e+00,-5.401618311000893069e-01,3.221439531867558159e+00,-4.383041413439761946e+00
7.900052070617675781e-01,1.852845312499999675e-01,4.264466590322082418e+00,-5.559694097454001005e-01,2.607458992738213244e+00,-4.232260172432039447e+00
8.000040054321289062e-01,1.795653124999999628e-01,4.289010282928252593e+00,-5.719906070866521697e-01,2.454664220345033065e+00,-4.051659945317836353e+00
8.100044727325439453e-01,1.736872265624999634e-01,4.307418052382880447e+00,-5.877811267135534257e-01,1.840690929899235329e+00,-3.902126816609544857e+00
8.200044631958007812e-01,1.676729687499999844e-01,4.322757860261736695e+00,-6.014263548148657268e-01,1.533982250805099312e+00,-3.738106691075310017e+00
8.300044536590576172e-01,1.615225390624999702e-01,4.335029706564822227e+00,-6.150435553012435497e-01,1.227185800644132740e+00,-3.569739995236379748e+00
8.400044441223144531e-01,1.552813281249999788e-01,4.341165629716364549e+00,-6.241216889588242500e-01,6.135929003220219613e-01,-3.409819149061338539e+00
8.500046730041503906e-01,1.489493359374999826e-01,4.342699610504250352e+00,-6.331847263017352789e-01,1.533945678655486700e-01,-3.243157233198161293e+00
8.600049018859863281e-01,1.431620312499999881e-01,4.341165629716364549e+00,-5.787172229639513388e-01,-1.533945678655486700e-01,-3.067175629490844990e+00
8.700044155120849609e-01,1.360583984374999778e-01,4.335029706564822227e+00,-7.103978331465640172e-01,-6.136221601346312227e-01,-2.823934934380777584e+00
8.800051212310791016e-01,1.295221484374999843e-01,4.324291841049622498e+00,-6.535788756973244240e-01,-1.073710777710968456e+00,-2.636736531594471966e+00
8.900051116943359375e-01,1.229632031249999896e-01,4.308952033170766249e+00,-6.558951567603646948e-01,-1.533982250805099312e+00,-2.376265491369625060e+00
9.000046253204345703e-01,1.163815624999999798e-01,4.290544263716138396e+00,-6.581960754393085811e-01,-1.840866480403982486e+00,-2.106914680680793239e+00
9.100048542022705078e-01,1.098226171874999851e-01,4.266000571109968220e+00,-6.558795193591450134e-01,-2.454313085848512266e+00,-1.812646526277321479e+00
9.200050830841064453e-01,1.033317578124999803e-01,4.238388916928026440e+00,-6.490710814419230479e-01,-2.761102221579609495e+00,-1.458650487856668843e+00
9.300048351287841797e-01,9.690898437499999296e-02,4.206175320382428140e+00,-6.422932697534677882e-01,-3.221439531867558159e+00,-1.115977665997454515e+00
9.400050640106201172e-01,9.066777343749998774e-02,4.167825800685287518e+00,-6.241068090787722511e-01,-3.834864196638272382e+00,-6.904965965937134298e-01
9.500055313110351562e-01,8.458542968749999114e-02,4.124874338624489489e+00,-6.082059535105491799e-01,-4.294945503098186457e+00,-2.475041999180900010e-01
9.600052833557128906e-01,7.870734374999999172e-02,4.078854914987919855e+00,-5.878231691383338786e-01,-4.602056474096575478e+00,2.508931115924778465e-01
9.700055122375488281e-01,7.310160156249999319e-02,4.028233548987693702e+00,-5.605613885180238398e-01,-5.062020739562572480e+00,8.058216746093899152e-01
9.800050258636474609e-01,6.788167968749998782e-02,3.971476259835925227e+00,-5.220175770725548059e-01,-5.676004981245537984e+00,1.335960972514360856e+00
9.900052547454833984e-01,6.302488281249998825e-02,3.911651009108385146e+00,-4.856685714285713940e-01,-5.982388146755775793e+00,1.984717645595557522e+00
1.000005006790161133e+00,5.866738281249999493e-02,3.845689835229302300e+00,-4.357608049210808243e-01,-6.596280946205062001e+00,2.607151438479127226e+00
1.010005950927734375e+00,5.483187499999999520e-02,3.773592738198677132e+00,-3.835145721982501366e-01,-7.209029071541213085e+00,3.232922402268768813e+00
1.020005941390991211e+00,5.160914062499999400e-02,3.698427679592280803e+00,-3.222737448441934105e-01,-7.516513028945057684e+00,3.953699672592914549e+00
1.030005931854248047e+00,4.929421874999999342e-02,3.624796601773770277e+00,-2.314924082683642581e-01,-7.363114803864529989e+00,4.768167309441809110e+00
1.040005922317504883e+00,4.727433593749999496e-02,3.529689792924860292e+00,-2.019884738812195990e-01,-9.510689954991740080e+00,4.870450297507579407e+00
1.050005435943603516e+00,4.629843749999999064e-02,3.437650945651721912e+00,-9.759459049617362492e-02,-9.204332402019822723e+00,5.331749157855350418e+00
1.060005903244018555e+00,4.611687499999999468e-02,3.339476175227040766e+00,-1.815540159732943401e-02,-9.817018292795847145e+00,5.572472365392356686e+00
1.070005416870117188e+00,4.659347656249999275e-02,3.238233443226588459e+00,4.766247442836345910e-02,-1.012476564222181352e+01,5.525498574067526647e+00
1.080005645751953125e+00,4.761476562499999260e-02,3.133922749650364992e+00,1.021265687583444437e-01,-1.043083061485619822e+01,5.471458696658887177e+00
1.090005636215209961e+00,4.911265624999999052e-02,3.028078075286255721e+00,1.497892053501178045e-01,-1.058447753055530072e+01,5.432894263541712121e+00
1.100005865097045898e+00,5.092828124999999179e-02,2.919165439346375290e+00,1.815583444592791529e-01,-1.089101431845280032e+01,5.354676937509515788e+00
1.110005617141723633e+00,5.294816406249999025e-02,2.811786784194380218e+00,2.019932897811261563e-01,-1.073813177289193455e+01,5.387855786766897026e+00
1.120005607604980469e+00,5.514960937499999161e-02,2.705942109830270947e+00,2.201447411963857181e-01,-1.058447753055530072e+01,5.412813834004128744e+00
1.130006074905395508e+00,5.746453124999999218e-02,2.600097435466161677e+00,2.314813703659554800e-01,-1.058397284692051343e+01,5.393314447678486445e+00
1.140006065368652344e+00,5.984753906249998950e-02,2.497320722677823568e+00,2.383010085115511156e-01,-1.027768108039428974e+01,5.437368826305277736e+00
1.150006294250488281e+00,6.225324218749998806e-02,2.397611971465257064e+00,2.405648064085445792e-01,-9.970646911259597900e+00,5.477861491911482084e+00
1.160006046295166016e+00,6.468164062499999478e-02,2.300971181828461720e+00,2.428458652424783926e-01,-9.664318595602718887e+00,5.514011493368540684e+00
1.170006752014160156e+00,6.713273437499998886e-02,2.207398353767437538e+00,2.450920783864963259e-01,-9.356622491481093817e+00,5.548740458885884408e+00
1.180006027221679688e+00,6.965191406249998662e-02,2.116893487282184516e+00,2.519362288984260956e-01,-9.051142668539883473e+00,5.579337297229659320e+00
1.190006017684936523e+00,7.219378906249998562e-02,2.030990563160588902e+00,2.541877424123213935e-01,-8.590300604508618321e+00,5.614653824239496771e+00
1.200006008148193359e+00,7.482644531249998954e-02,1.949689581402650029e+00,2.632658760699047584e-01,-8.130105929267100962e+00,5.507640833010128745e+00
1.210006475448608398e+00,7.757257812499998573e-02,1.872990542008367898e+00,2.746004491596134023e-01,-7.669545541246754361e+00,5.394851258886005141e+00
1.220006942749023438e+00,8.040949218749998684e-02,1.800893444977742730e+00,2.836781499582788357e-01,-7.209372808771945529e+00,5.179656414800960285e+00
1.230006456375122070e+00,8.338257812499999533e-02,1.731864309522888945e+00,2.973230547674122204e-01,-6.903249301514867042e+00,4.854515139297481241e+00
1.240006685256958008e+00,8.649183593749998344e-02,1.668971097219577704e+00,3.109186648865141511e-01,-6.289177282486829057e+00,4.540373166805183658e+00
1.250006198883056641e+00,8.973726562499999282e-02,1.610679827279923204e+00,3.245587544407629865e-01,-5.829410521279240420e+00,4.317024061601300922e+00
1.260006427764892578e+00,9.311886718749998182e-02,1.556990499703925890e+00,3.381524165554061212e-01,-5.368809875293625744e+00,4.099488287589785784e+00
1.270006656646728516e+00,9.663664062499999208e-02,1.507903114491585317e+00,3.517692923898541602e-01,-4.908626171697046736e+00,3.916526922995893667e+00
1.280006408691406250e+00,1.003359765624999844e-01,1.463417671642901707e+00,3.699427666777923562e-01,-4.448654591626652888e+00,3.805696088596914883e+00
1.290006399154663086e+00,1.042168749999999866e-01,1.425068151945760642e+00,3.880902138616696417e-01,-3.834955627012792689e+00,3.687838968449003385e+00
1.300006389617919922e+00,1.082793359374999848e-01,1.389786593824390959e+00,4.062464811768350392e-01,-3.528159176851759504e+00,3.649509136097997875e+00
