time,cart_pos,pend_pos,cart_vel,pend_vel,force
4.053115844726562500e-06,0.000000000000000000e+00,3.141592653589793116e+00,0.000000000000000000e+00,0.000000000000000000e+00,3.053250605262066678e-04
1.001620292663574219e-02,0.000000000000000000e+00,3.141592653589793116e+00,0.000000000000000000e+00,0.000000000000000000e+00,7.602330366157469266e-01
2.002835273742675781e-02,2.269531249999999685e-05,3.141592653589793116e+00,2.266777158641710213e-03,0.000000000000000000e+00,1.525184170974572151e+00
3.004789352416992188e-02,6.808593749999999054e-05,3.141592653589793116e+00,4.530210113027959180e-03,0.000000000000000000e+00,2.058157517424962002e+00
4.005575180053710938e-02,2.042578124999999581e-04,3.141592653589793116e+00,1.360649514008004102e-02,0.000000000000000000e+00,2.348386895085315729e+00
5.006885528564453125e-02,4.312109374999999536e-04,3.140058672801907313e+00,2.266561264822134283e-02,-1.531973368863415730e-01,2.632671519815334094e+00
6.008243560791015625e-02,8.170312499999998323e-04,3.138524692014021955e+00,3.852970666666665628e-02,-1.531900417750169108e-01,2.899781193629748621e+00
7.009601593017578125e-02,1.361718749999999865e-03,3.135456730438250350e+00,5.439488000000000656e-02,-3.063800835501225284e-01,3.160983944542735014e+00
8.011031150817871094e-02,2.065273437499999618e-03,3.132388768862479189e+00,7.025503511653927169e-02,-3.063582008214480457e-01,3.413898149423107320e+00
9.012317657470703125e-02,3.041171874999999605e-03,3.126252845710936867e+00,9.746445508012477332e-02,-6.128039388100713358e-01,3.635618662036071758e+00
1.001365184783935547e-01,4.221328124999999820e-03,3.121650903347279904e+00,1.178583794852258587e-01,-4.595810677315139703e-01,3.876893274358325314e+00
1.101510524749755859e-01,5.832695312499999556e-03,3.113980999407851780e+00,1.609028625845157212e-01,-7.658772681830097184e-01,4.056540020216990783e+00
1.201641559600830078e-01,7.580234374999998866e-03,3.104777114680537853e+00,1.745252173913042770e-01,-9.191840213179607311e-01,4.248694285732656617e+00
1.301779747009277344e-01,9.418554687499998759e-03,3.097107210741109729e+00,1.835783490869264956e-01,-7.659319723996842466e-01,4.433982102042965501e+00
1.401913166046142578e-01,1.173347656249999760e-02,3.086369345225909999e+00,2.311837443748659404e-01,-1.072355824706880734e+00,4.563038773450719177e+00
1.502048969268798828e-01,1.459308593749999820e-02,3.072563518134939109e+00,2.855731200000000691e-01,-1.378710375975418234e+00,4.688103071739530670e+00
1.602184772491455078e-01,1.754347656249999679e-02,3.060291671831854021e+00,2.946389333333331861e-01,-1.225520334200357109e+00,4.797899623999786201e+00
1.702325344085693359e-01,2.081160156249999699e-02,3.044951863952997773e+00,3.263537393457454638e-01,-1.531827473585026356e+00,4.874100290161120341e+00
1.802456378936767578e-01,2.439746093749999706e-02,3.031146036862026882e+00,3.581166798418972674e-01,-1.378776031976941097e+00,4.950927565138598219e+00
1.902596950531005859e-01,2.830105468749999700e-02,3.014272248195284831e+00,3.898114108851959414e-01,-1.685010220943546688e+00,4.967300708194963832e+00
2.002730369567871094e-01,3.252238281249999335e-02,2.995864478740656978e+00,4.215703573894613032e-01,-1.838324270926055881e+00,4.990111670642148667e+00
2.102870941162109375e-01,3.706144531249999652e-02,2.978990690073914926e+00,4.532690824246467520e-01,-1.685010220943546688e+00,4.979794931644387468e+00
2.203004360198974609e-01,4.189554687499999486e-02,2.959048939831401714e+00,4.827660544298671974e-01,-1.991517960169864487e+00,4.930048706686594784e+00
2.303137779235839844e-01,4.700199218749999408e-02,2.940641170376774305e+00,5.099641420033809158e-01,-1.838324270926011694e+00,4.892289077207541581e+00
2.403275966644287109e-01,5.235808593749999296e-02,2.920699420134260649e+00,5.348702516606745894e-01,-1.991423128239232287e+00,4.793608881597426929e+00
2.503411769866943359e-01,5.794113281249999026e-02,2.902291650679633239e+00,5.575475199999997411e-01,-1.838280501300513459e+00,4.720231497329665515e+00
2.603547573089599609e-01,6.377382812499998721e-02,2.882349900437119583e+00,5.824785066666663402e-01,-1.991470543075618993e+00,4.569529729511004668e+00
2.703683376312255859e-01,6.983347656249999647e-02,2.862408150194606371e+00,6.051430400000009646e-01,-1.991470543075574584e+00,4.425367530841455732e+00
2.803819179534912109e-01,7.609738281249998904e-02,2.844000380739978517e+00,6.255411199999992844e-01,-1.838280501300557646e+00,4.277090918763963856e+00
2.903957366943359375e-01,8.254285156249999145e-02,2.825592611285351108e+00,6.436574214899647428e-01,-1.838236733759233354e+00,4.083188729480099255e+00
3.004093170166015625e-01,8.914718749999998859e-02,2.807184841830723254e+00,6.595379199999996667e-01,-1.838280501300557646e+00,3.886722528674652288e+00
3.104231357574462891e-01,9.586499999999999189e-02,2.790311053163981203e+00,6.708542139472872812e-01,-1.685050339279323239e+00,3.669136964509216003e+00
3.204367160797119141e-01,1.027189843749999887e-01,2.774971245285124954e+00,6.844689066666663768e-01,-1.531900417750435173e+00,3.444469376043576947e+00
3.304502964019775391e-01,1.096410546874999892e-01,2.759631437406268262e+00,6.912682666666667419e-01,-1.531900417750479582e+00,3.188642839890563963e+00
3.404638767242431641e-01,1.159730468749999854e-01,2.747359591103183174e+00,6.323404799999996495e-01,-1.225520334200357109e+00,2.957984896237300543e+00
3.504772186279296875e-01,1.230312890624999794e-01,2.736621725587983889e+00,7.048837696135615838e-01,-1.072355824706836325e+00,2.678797441933100654e+00
3.604907989501953125e-01,1.301349218749999759e-01,2.725883860072784159e+00,7.093998933333329759e-01,-1.072330292425340170e+00,2.365584567848999953e+00
3.705048561096191406e-01,1.371704687499999686e-01,2.719747936921241838e+00,7.025670777582012638e-01,-6.127309894339928453e-01,2.101952594774755045e+00
3.805181980133056641e-01,1.441833203124999740e-01,2.713612013769699072e+00,7.003507550179771668e-01,-6.127747569753667634e-01,1.773737858018031854e+00
3.905315399169921875e-01,1.511280859374999896e-01,2.710544052193927911e+00,6.935512331245997641e-01,-3.063873784876612327e-01,1.458292750812098859e+00
4.005453586578369141e-01,1.580047656249999877e-01,2.709010071406042108e+00,6.867190095473915123e-01,-1.531863944799546073e-01,1.124395926557359982e+00
4.105589389801025391e-01,1.647679687499999657e-01,2.710544052193927911e+00,6.754030933333311504e-01,1.531900417750612642e-01,7.826865175578450184e-01
4.205725193023681641e-01,1.713496093749999893e-01,2.715145994557584874e+00,6.572714666666690242e-01,4.595701253251394114e-01,4.367470436567043590e-01
4.305863380432128906e-01,1.777269921874999881e-01,2.722815898497012999e+00,6.368582233756338029e-01,7.659319723996842466e-01,8.224500583109681240e-02
4.405999183654785156e-01,1.839228124999999769e-01,2.732019783224326925e+00,6.187417599999989193e-01,9.191402506502788228e-01,-3.074853644633243066e-01
4.506137371063232422e-01,1.898689843749999662e-01,2.744291629527412013e+00,5.937966353182055901e-01,1.225491155839503632e+00,-6.805804772172707739e-01
4.606273174285888672e-01,1.956108984374999860e-01,2.761165418194154064e+00,5.734126933333353326e-01,1.685090459525496520e+00,-1.058297409608269124e+00
4.706408977508544922e-01,2.010123828124999734e-01,2.779573187648781918e+00,5.394158933333320638e-01,1.838280501300557646e+00,-1.463579820338565707e+00
4.806542396545410156e-01,2.060734374999999841e-01,2.801048918679180932e+00,5.054311274077964988e-01,2.144711649413717058e+00,-1.858179683414744598e+00
4.906678199768066406e-01,2.107486718749999599e-01,2.827126592073236466e+00,4.668893866666642412e-01,2.604230710175730934e+00,-2.245586162953232101e+00
5.006818771362304688e-01,2.150153906249999691e-01,2.854738246255178247e+00,4.260729374791685786e-01,2.757289452453100864e+00,-2.655791882235072343e+00
5.106952190399169922e-01,2.188282031249999815e-01,2.886951842800776546e+00,3.807732260291923909e-01,3.217067474120553605e+00,-3.034472950958069681e+00
5.207087993621826172e-01,2.221190234374999795e-01,2.923767381710032254e+00,3.286357333333331243e-01,3.676561002601115291e+00,-3.408743330793598592e+00
5.307223796844482422e-01,2.249105468749999781e-01,2.963650882195058678e+00,2.787737599999998706e-01,3.982941086151149168e+00,-3.783314919012854105e+00
5.407359600067138672e-01,2.271346874999999599e-01,3.005068363467970904e+00,2.221124266666648361e-01,4.136131127926210738e+00,-4.140538417758410361e+00
5.507495403289794922e-01,2.287687499999999652e-01,3.052621767892425897e+00,1.631846400000005193e-01,4.748891295026410830e+00,-4.467968585119868052e+00
5.607631206512451172e-01,2.297673437499999638e-01,3.101709153104766248e+00,9.972394666666652141e-02,4.902081336801428435e+00,-4.769959518103804363e+00
5.707767009735107422e-01,2.301758593749999582e-01,3.155398480680764006e+00,4.079615999999944287e-02,5.361651462126611811e+00,-5.042541320554057904e+00
5.807907581329345703e-01,2.299942968749999761e-01,3.210621789044647123e+00,-1.813076329698407041e-02,5.514578904906157319e+00,-5.304754691390023424e+00
5.908043384552001953e-01,2.293361328124999543e-01,3.267379078196415598e+00,-6.572714666666884531e-02,5.668031545676646132e+00,-5.505936634879268432e+00
6.008181571960449219e-01,2.282467578124999785e-01,3.327204328923955678e+00,-1.087871698292873640e-01,5.974269384717608489e+00,-5.699332027639674614e+00
6.108312606811523438e-01,2.267261718749999655e-01,3.387029579651495759e+00,-1.518596047430842977e-01,5.974696138566700121e+00,-5.824237411723163227e+00
6.208450794219970703e-01,2.248651562499999756e-01,3.446854830379035839e+00,-1.858447484583690135e-01,5.974269384717608489e+00,-5.926917727726717544e+00
6.308586597442626953e-01,2.226410156249999661e-01,3.508214061894461278e+00,-2.221124266666676117e-01,6.127601671001785100e+00,-5.993740057076285765e+00
6.408722400665283203e-01,2.200991406249999671e-01,3.568039312622001358e+00,-2.538427733333332159e-01,5.974411629226768383e+00,-5.991588505840032219e+00
6.508858203887939453e-01,2.172395312499999787e-01,3.627864563349541438e+00,-2.855731199999988479e-01,5.974411629226768383e+00,-5.981177568833653702e+00
6.608994007110595703e-01,2.140621874999999730e-01,3.687689814077081518e+00,-3.173034666666672554e-01,5.974411629226768383e+00,-5.918304657629113841e+00
6.709134578704833984e-01,2.105898046874999652e-01,3.744447103228849993e+00,-3.467508480548552874e-01,5.667761652264633021e+00,-5.850276503020483077e+00
6.809279918670654297e-01,2.068677734374999577e-01,3.799670411592733110e+00,-3.716629501952202208e-01,5.514316330917732323e+00,-5.760640641821013652e+00
6.909410953521728516e-01,2.028960937499999784e-01,3.854893719956616227e+00,-3.966482213438714544e-01,5.515104127907719977e+00,-5.611605374115103295e+00
7.009546756744384766e-01,1.986747656249999716e-01,3.905515085956842380e+00,-4.215603200000006545e-01,5.055271378576489560e+00,-5.481470568802535581e+00
7.109677791595458984e-01,1.942264843749999803e-01,3.954602471169183175e+00,-4.442460079051374633e-01,4.902314780362441837e+00,-5.317265755517635917e+00
7.209811210632324219e-01,1.895966406249999792e-01,4.000621894805751921e+00,-4.623674887497322694e-01,4.595810677315051329e+00,-5.151980525394593613e+00
7.309951782226562500e-01,1.847398437499999657e-01,4.043573356866549950e+00,-4.849979181943730455e-01,4.289116926038126998e+00,-4.982686918088873540e+00
7.410085201263427734e-01,1.797241796874999853e-01,4.084990838139462177e+00,-5.008981128122078630e-01,4.136229609583581990e+00,-4.801694599903010285e+00
7.510225772857666016e-01,1.745042578124999799e-01,4.120272396260832082e+00,-5.212594447883439619e-01,3.523203189245613931e+00,-4.637868528291990700e+00
7.610356807708740234e-01,1.691027734374999647e-01,4.154019973594316184e+00,-5.394415810276694812e-01,3.370341411499159445e+00,-4.457660152647181739e+00
7.710492610931396484e-01,1.635424218749999825e-01,4.183165608564143767e+00,-5.552810666666648798e-01,2.910610793725898038e+00,-4.291539610119693648e+00
7.810630798339843750e-01,1.578005078124999905e-01,4.207709301170313942e+00,-5.733990409752141026e-01,2.450982311679007264e+00,-4.124346161007662381e+00
7.910764217376708984e-01,1.519224218749999911e-01,4.230719012988598315e+00,-5.870253901283363218e-01,2.297905338657525665e+00,-3.947763099057928216e+00
8.010911941528320312e-01,1.459308593749999716e-01,4.247592801655340367e+00,-5.982724570884437876e-01,1.684889877397234947e+00,-3.790688369840481631e+00
8.111042976379394531e-01,1.398258203124999877e-01,4.261398628746311701e+00,-6.097049802371525828e-01,1.378776031976985283e+00,-3.614083860767432821e+00
8.211174011230468750e-01,1.336299999999999710e-01,4.270602513473624740e+00,-6.187712252964443493e-01,9.191840213178720242e-01,-3.442641152087755341e+00
8.311312198638916016e-01,1.266852343749999832e-01,4.276738436625167950e+00,-6.935182076617211200e-01,6.127455779198184294e-01,-3.242249899977112548e+00
8.411448001861572266e-01,1.202624609374999820e-01,4.276738436625167950e+00,-6.414062933333334326e-01,0.000000000000000000e+00,-3.068929517465098566e+00
8.511583805084228516e-01,1.137489062499999898e-01,4.273670475049396345e+00,-6.504721066666658835e-01,-3.063800835501225284e-01,-2.863453859310549632e+00
8.611721992492675781e-01,1.072126562499999824e-01,4.266000571109968220e+00,-6.527230189757393664e-01,-7.659319723996842466e-01,-2.636706596627797605e+00
8.711857795715332031e-01,1.013572656249999843e-01,4.255262705594768491e+00,-5.847449599999998693e-01,-1.072330292425340170e+00,-2.400136950255263635e+00
8.811993598937988281e-01,9.482101562499999081e-02,4.239922897715912242e+00,-6.527385599999993016e-01,-1.531900417750435173e+00,-2.131074568393049873e+00
8.912131786346435547e-01,8.767199218749999190e-02,4.216913185897627869e+00,-7.139158020047140507e-01,-2.297795917199052962e+00,-1.829874567503433802e+00
9.012262821197509766e-01,8.120382812499998826e-02,4.192369493291456806e+00,-6.459699604743086576e-01,-2.451157390181287532e+00,-1.508291936635417052e+00
9.112401008605957031e-01,7.478105468749998708e-02,4.163223858321630111e+00,-6.413910221185210592e-01,-2.910541495118782684e+00,-1.140082648294786782e+00
9.212534427642822266e-01,6.847175781249999205e-02,4.129476280988146009e+00,-6.300890287863991635e-01,-3.370261163364406176e+00,-7.411378693080502567e-01
9.312672615051269531e-01,6.234402343749999298e-02,4.091126761291005387e+00,-6.119278302897549482e-01,-3.829659861998421455e+00,-3.307383023929828525e-01
9.412815570831298828e-01,5.644324218749999234e-02,4.048175299230207358e+00,-5.892357783967812068e-01,-4.289014811500450719e+00,1.679081581859523942e-01
9.512946605682373047e-01,5.081480468749999257e-02,4.000621894805751921e+00,-5.621071936758893495e-01,-4.749117443476144729e+00,6.652322718788484801e-01
9.613080024719238281e-01,4.545871093749999370e-02,3.948466548017640410e+00,-5.348957222791017596e-01,-5.208585434290418092e+00,1.224393857834485511e+00
9.713215827941894531e-01,4.053382812499999738e-02,3.891709258865871490e+00,-4.918203733333329497e-01,-5.668031545676690541e+00,1.818917442798240192e+00
9.813354015350341797e-01,3.599476562499999421e-02,3.828816046562560249e+00,-4.532798742887077514e-01,-6.280642173677473572e+00,2.397254165960902128e+00
9.913492202758789062e-01,3.197769531249999853e-02,3.762854872683477847e+00,-4.011526887455056367e-01,-6.587014962637337767e+00,3.085177184867389677e+00
1.001362800598144531e+00,2.852800781249999543e-02,3.692291756440738482e+00,-3.445009066666669950e-01,-7.046741921652063922e+00,3.747833822238092694e+00
1.011376380920410156e+00,2.573648437499999678e-02,3.615592717046456350e+00,-2.787737599999998706e-01,-7.659502088752264903e+00,4.391832499112338084e+00
1.021389722824096680e+00,2.369390624999999709e-02,3.532757754500631453e+00,-2.039856568013523885e-01,-8.272459219167208389e+00,5.038994267897324519e+00
1.031403541564941406e+00,2.242296874999999759e-02,3.446854830379035839e+00,-1.269183648008380128e-01,-8.578438090876526090e+00,5.674938882278619090e+00
1.041416883468627930e+00,2.194636718749999604e-02,3.353282002318011656e+00,-4.759665325364904886e-02,-9.344815043874044491e+00,5.648708787655594143e+00
1.051430702209472656e+00,2.224140624999999816e-02,3.256641212681216313e+00,2.946319182876619425e-02,-9.650742852236119163e+00,5.697676101188082320e+00
1.061444282531738281e+00,2.310382812499999633e-02,3.156932461468649365e+00,8.612522666666648508e-02,-9.957352715377961516e+00,5.692577616917985139e+00
1.071457862854003906e+00,2.444285156249999605e-02,3.054155748680311699e+00,1.337207466666666400e-01,-1.026373279892799495e+01,5.654115551616187396e+00
1.081471443176269531e+00,2.621308593749999485e-02,2.949845055104087788e+00,1.767833599999998895e-01,-1.041692284070310137e+01,5.634681982447760085e+00
1.091485261917114258e+00,2.827835937499999577e-02,2.844000380739978517e+00,2.062423428013619719e-01,-1.056986121911575793e+01,5.610243851759762812e+00
1.101498603820800781e+00,3.052519531249999613e-02,2.741223667951640852e+00,2.243842224814876773e-01,-1.026397717933702758e+01,5.655448643471692627e+00
1.111512660980224609e+00,3.295359374999999591e-02,2.636912974375417384e+00,2.424989590971858289e-01,-1.041642682037827683e+01,5.630437476976562827e+00
1.121526002883911133e+00,3.547277343749999368e-02,2.537204223162850436e+00,2.515823100550010905e-01,-9.957589800849410366e+00,5.682782224703829321e+00
1.131539583206176758e+00,3.808273437499999636e-02,2.437495471950283932e+00,2.606421333333335810e-01,-9.957352715377917107e+00,5.676080179214314292e+00
1.141553401947021484e+00,4.073808593749999457e-02,2.342388663101373947e+00,2.651687264588936666e-01,-9.497556457756209269e+00,5.718352918514386651e+00
1.151566743850708008e+00,4.348421874999999076e-02,2.248815835040350208e+00,2.742473830329289486e-01,-9.344815043874000082e+00,5.726131603614292409e+00
1.161580562591552734e+00,4.623035156249999389e-02,2.161378930130868348e+00,2.742343239446682901e-01,-8.731624485356524801e+00,5.773155002296016747e+00
1.171594142913818359e+00,4.911265624999999052e-02,2.075476006009272290e+00,2.878395733333329876e-01,-8.578642339402543726e+00,5.778983254255370738e+00
1.181607723236083984e+00,5.206304687499999084e-02,1.994175024251333417e+00,2.946389333333333527e-01,-8.119072214077382554e+00,5.802387891997963898e+00
1.191621303558349609e+00,5.512691406249999038e-02,1.917475984857051508e+00,3.059711999999999432e-01,-7.659502088752242699e+00,5.750512887904578818e+00
1.201634883880615234e+00,5.830425781249998912e-02,1.845378887826426340e+00,3.173034666666665338e-01,-7.199931963427125048e+00,5.695802376294986757e+00
1.211648464202880859e+00,6.164046874999998954e-02,1.777883733159458135e+00,3.331686400000000159e-01,-6.740361838101986081e+00,5.504716542184824313e+00
1.221662044525146484e+00,6.513554687499999163e-02,1.714990520856146894e+00,3.490338133333335535e-01,-6.280791712776846225e+00,5.190950596449229515e+00
1.231675863265991211e+00,6.883488281249998397e-02,1.655165270128606814e+00,3.694230975452957866e-01,-5.974269384717608489e+00,4.872958388196655832e+00
1.241689443588256836e+00,7.269308593749998493e-02,1.601475942552609277e+00,3.852970666666667432e-01,-5.361651462126589607e+00,4.677314014972457912e+00
1.251703500747680664e+00,7.673285156249999572e-02,1.552388557340268926e+00,4.034094833579364159e-01,-4.901847915472120398e+00,4.479527996240056709e+00
1.261718034744262695e+00,8.099957031249999106e-02,1.507903114491585317e+00,4.260526502237877433e-01,-4.442088155461505039e+00,4.324508835521115202e+00
1.271730422973632812e+00,8.544785156249998237e-02,1.469553594794444251e+00,4.442777435408968301e-01,-3.830207021402489698e+00,4.212664329124930163e+00
1.281743526458740234e+00,9.007769531249998352e-02,1.434272036673074568e+00,4.623784980237155562e-01,-3.523538748385478758e+00,4.111637312372646846e+00
1.291757822036743164e+00,9.491179687499998185e-02,1.405126401703247208e+00,4.827200799942859555e-01,-2.910402907803889772e+00,4.075876421052579524e+00
1.301771402359008789e+00,9.997285156249999249e-02,1.379048728309191452e+00,5.054190933333343461e-01,-2.604230710175753138e+00,4.058391129045845425e+00
