time,cart_pos,pend_pos,cart_vel,pend_vel,force
2.651214599609375000e-04,0.000000000000000000e+00,3.141592653589793116e+00,0.000000000000000000e+00,0.000000000000000000e+00,-1.154111870727968746e-02
2.000975608825683594e-02,0.000000000000000000e+00,3.141592653589793116e+00,0.000000000000000000e+00,0.000000000000000000e+00,-8.768828080556289040e-01
4.001760482788085938e-02,-9.078124999999998739e-05,3.143126634377678918e+00,-4.537281902787211087e-03,7.666895166234789782e-02,-1.481526367687323820e+00
6.002545356750488281e-02,-5.446874999999999243e-04,3.144660615165564277e+00,-2.268640951393605457e-02,7.666895166232569336e-02,-1.818959691274634638e+00
8.003354072570800781e-02,-1.497890624999999873e-03,3.149262557529221240e+00,-4.764089227836033891e-02,2.300041141999029648e-01,-2.101411154117390101e+00
1.000421047210693359e-01,-3.063867187499999534e-03,3.155398480680764006e+00,-7.826531493529705064e-02,3.066648437621652401e-01,-2.360952403517909470e+00
1.200494766235351562e-01,-5.129140624999999586e-03,3.163068384620192131e+00,-1.032256234136110645e-01,3.833538945953637311e-01,-2.592700031229494773e+00
1.400575637817382812e-01,-7.784492187499998661e-03,3.175340230923277218e+00,-1.327139142040037745e-01,6.133443045330672083e-01,-2.733178134260395797e+00
1.600661277770996094e-01,-1.112070312499999908e-02,3.187612077226362306e+00,-1.667391492099807304e-01,6.133296875243082757e-01,-2.864421390853462590e+00
1.800739765167236328e-01,-1.513777343749999824e-02,3.202951885105218555e+00,-2.007747241983340591e-01,7.666895166233901326e-01,-2.929497914100514855e+00
2.000863552093505859e-01,-1.990378906249999635e-02,3.219825673771960606e+00,-2.381533798756223785e-01,8.431675677294057092e-01,-2.917662873907312271e+00
2.200906276702880859e-01,-2.532796874999999545e-02,3.239767424014474262e+00,-2.711510602593439900e-01,9.968745567455186141e-01,-2.843376620509656671e+00
2.400984764099121094e-01,-3.138761718749999430e-02,3.259709174256987474e+00,-3.028635670110463307e-01,9.966963716104116910e-01,-2.743701631526131113e+00
2.601065635681152344e-01,-3.799195312499999144e-02,3.279650924499500686e+00,-3.300833250714965139e-01,9.966844948662313408e-01,-2.557479221569460837e+00
2.801148891448974609e-01,-4.511828124999999606e-02,3.301126655529899701e+00,-3.561681409897405892e-01,1.073339742897805094e+00,-2.313910596096193650e+00
3.001229763031005859e-01,-5.265312499999999507e-02,3.319534424984527554e+00,-3.765899103908483814e-01,9.200164567996118592e-01,-2.060279521981375428e+00
3.201310634613037109e-01,-6.052839843749999171e-02,3.337942194439155408e+00,-3.936045147759769658e-01,9.200164567996118592e-01,-1.718085682752106269e+00
3.401391506195068359e-01,-6.856253906249999697e-02,3.353282002318011656e+00,-4.015446634890374455e-01,7.666803806663283760e-01,-1.361910042326166304e+00
3.601517677307128906e-01,-7.666476562499999203e-02,3.365553848621096744e+00,-4.048559225151595609e-01,6.132054710732197655e-01,-9.795200043486623764e-01
3.801558017730712891e-01,-8.465351562499999483e-02,3.373223752560524868e+00,-3.993569488576095283e-01,3.834178607768392033e-01,-5.563962197202164672e-01
4.001641273498535156e-01,-9.243800781249998655e-02,3.376291714136296029e+00,-3.890626508263719807e-01,1.533342489853944113e-01,-1.178452118136114890e-01
4.201717376708984375e-01,-9.988207031249998757e-02,3.373223752560524868e+00,-3.720615496079506812e-01,-1.533397305596330140e-01,3.344729419523027603e-01
4.401803016662597656e-01,-1.068268359374999893e-01,3.365553848621096744e+00,-3.470896575391435590e-01,-3.833310547026898552e-01,8.082505192249038739e-01
4.601881504058837891e-01,-1.131815234374999868e-01,3.350214040742240496e+00,-3.176097331951046598e-01,-7.666895166233901326e-01,1.282893431266959317e+00
4.801962375640869141e-01,-1.186737890624999792e-01,3.328738309711841481e+00,-2.745022840800758757e-01,-1.073352532932873027e+00,1.758998882758464388e+00
5.002050399780273438e-01,-1.231674609374999868e-01,3.298058693954128540e+00,-2.245847493535745032e-01,-1.533305948202976721e+00,2.215206276437159616e+00
5.202126502990722656e-01,-1.264809765624999860e-01,3.261243155044873276e+00,-1.656127629352462660e-01,-1.840076766715662782e+00,2.657033932566474910e+00
5.402209758758544922e-01,-1.285235546874999857e-01,3.215223731408304086e+00,-1.020864098378236468e-01,-2.300013734781004793e+00,3.062889754023199185e+00
5.602288246154785156e-01,-1.291817187499999797e-01,3.163068384620192131e+00,-3.289529379520698266e-02,-2.606744356519562267e+00,3.410091156218580277e+00
5.802371501922607422e-01,-1.284781640624999832e-01,3.104777114680537853e+00,3.516309672191686442e-02,-2.913350730722604531e+00,3.700081021840484041e+00
6.002454757690429688e-01,-1.266171484374999934e-01,3.041883902377226612e+00,9.301206229668328163e-02,-3.143352104200707320e+00,3.943095461075691421e+00
6.202533245086669922e-01,-1.235986718749999824e-01,2.975922728498143766e+00,1.508646232676753296e-01,-3.296764921480626498e+00,4.070827117434140163e+00
6.402621269226074219e-01,-1.195362109374999843e-01,2.908427573831175561e+00,2.030336875469179181e-01,-3.373273086046535418e+00,4.146868732229710197e+00
6.602697372436523438e-01,-1.144070703124999838e-01,2.840932419164207356e+00,2.563594823518196564e-01,-3.373474072312059313e+00,4.160329479347814718e+00
6.802780628204345703e-01,-1.082793359374999848e-01,2.774971245285124954e+00,3.062592295134709541e-01,-3.296686353186101481e+00,4.070351242051174268e+00
7.002861499786376953e-01,-1.012210937499999908e-01,2.709010071406042108e+00,3.527694642516679413e-01,-3.296725636865260878e+00,3.898302180155533314e+00
7.202942371368408203e-01,-9.339121093749998270e-02,2.649184820678502472e+00,3.913359008579603837e-01,-2.990053484598694133e+00,3.745980889243215373e+00
7.403020858764648438e-01,-8.483507812499999079e-02,2.595495493102504714e+00,4.276388193376942648e-01,-2.683413308181910040e+00,3.512424782241702292e+00
7.603104114532470703e-01,-7.564347656249999219e-02,2.546408107890164363e+00,4.593888442702064312e-01,-2.453347983766398954e+00,3.228063803750261140e+00
7.803192138671875000e-01,-6.592988281249999305e-02,2.506524607405137495e+00,4.854660238552005458e-01,-1.993297732663872113e+00,2.955889689222066963e+00
8.003268241882324219e-01,-5.578507812499999136e-02,2.474311010859539195e+00,5.070472947401035713e-01,-1.610067170876202214e+00,2.616602188287050268e+00
8.203346729278564453e-01,-4.532253906249999326e-02,2.451301299041254822e+00,5.229217392962259847e-01,-1.150034274935085143e+00,2.266437470441328816e+00
8.403429985046386719e-01,-3.465574218749999796e-02,2.440563433526055093e+00,5.331179180419678421e-01,-5.366698714489136490e-01,1.898228599903379887e+00
8.603513240814208984e-01,-2.442015624999999829e-02,2.439029452738169290e+00,5.115663426317608176e-01,-7.666712449270829399e-02,1.474723307570670716e+00
8.803594112396240234e-01,-1.379874999999999852e-02,2.449767318253369019e+00,5.308556568160152089e-01,5.366762664664476157e-01,9.907668576928621018e-01
9.003674983978271484e-01,-3.472382812499999558e-03,2.471243049283768034e+00,5.161096663489036507e-01,1.073352532932873027e+00,4.908686067152394639e-01
9.203760623931884766e-01,6.445468749999998942e-03,2.506524607405137495e+00,4.956803279235479365e-01,1.763322851632377786e+00,-9.100054126433845814e-02
9.403841495513916016e-01,1.579593749999999922e-02,2.552544031041707129e+00,4.673344671115348126e-01,2.300041141999029648e+00,-6.987912363357643430e-01
9.603924751281738281e-01,2.432937499999999684e-02,2.610835300981361407e+00,4.264943344335743181e-01,2.913350730722604531e+00,-1.337787233810028287e+00
9.804005622863769531e-01,3.181882812499999685e-02,2.682932398011986574e+00,3.743212964728312442e-01,3.603397789131783213e+00,-2.001034792066359813e+00
1.000408649444580078e+00,3.806003906249999513e-02,2.765767360557811028e+00,3.119344137273593054e-01,4.140074055598208957e+00,-2.659349852554628413e+00
1.020416736602783203e+00,4.289414062499999347e-02,2.862408150194606371e+00,2.416073822688273587e-01,4.830086398197917852e+00,-3.273798188784806662e+00
1.040424585342407227e+00,4.600339843749999547e-02,2.969786805346601444e+00,1.554019051704620957e-01,5.366826616363797875e+00,-3.786403103483778843e+00
1.060432910919189453e+00,4.729703124999999619e-02,3.087903326013795802e+00,6.465472623062169799e-02,5.903368585937917246e+00,-4.163026586131398865e+00
1.080440998077392578e+00,4.684312499999999241e-02,3.215223731408304086e+00,-2.268613918017178127e-02,6.363447159530596586e+00,-4.431016862504317366e+00
1.100449323654174805e+00,4.505019531249999237e-02,3.345612098378583532e+00,-8.960918196875633512e-02,6.516705581879516984e+00,-4.512542726231397516e+00
1.120457172393798828e+00,4.198632812499999284e-02,3.479068426924634139e+00,-1.531332642190683657e-01,6.670198794623556360e+00,-4.441041517306000941e+00
1.140465497970581055e+00,3.790117187499999346e-02,3.609456793894913584e+00,-2.041728196756472935e-01,6.516705581879516984e+00,-4.335575670520654512e+00
1.160473585128784180e+00,3.284011718749999670e-02,3.736777199289421869e+00,-2.529504518589130724e-01,6.363447159530596586e+00,-4.046431834439308872e+00
1.180481672286987305e+00,2.703011718749999751e-02,3.857961681532387388e+00,-2.903825815061963356e-01,6.056775007264051602e+00,-3.761271651253936366e+00
1.200489997863769531e+00,2.060734374999999632e-02,3.968408298260153622e+00,-3.210050442678233917e-01,5.520032963474419851e+00,-3.508035232091016198e+00
1.220498085021972656e+00,1.361718749999999735e-02,4.068117049472720126e+00,-3.493665433746424576e-01,4.983422474331178798e+00,-3.249238987003655321e+00
1.240505933761596680e+00,6.150429687499999430e-03,4.155553954382201987e+00,-3.731914365042480197e-01,4.370130244753386073e+00,-3.017004999049656799e+00
1.260514259338378906e+00,-1.770234374999999673e-03,4.230719012988598315e+00,-3.958684114822272893e-01,3.756689100142307058e+00,-2.796152681878560031e+00
1.280523300170898438e+00,-1.007671874999999800e-02,4.289010282928252593e+00,-4.151365597445307309e-01,2.913246588258087133e+00,-2.639266549702338871e+00
1.300530672073364258e+00,-1.879171874999999853e-02,4.333495725776936425e+00,-4.355894438552379566e-01,2.223452588653145323e+00,-2.443329601714981258e+00
1.320539236068725586e+00,-2.786984374999999445e-02,4.362641360746764008e+00,-4.537119706394030505e-01,1.456658007870257121e+00,-2.255701398822357984e+00
1.340547084808349609e+00,-3.726570312499999371e-02,4.374913207049848651e+00,-4.696086769384763548e-01,6.133516132986943648e-01,-1.995443158677643769e+00
1.360555171966552734e+00,-4.684312499999999241e-02,4.373379226261962849e+00,-4.786775367016204985e-01,-7.666803806664171383e-02,-1.674043102918988613e+00
1.380563497543334961e+00,-5.651132812499998909e-02,4.353437476019449193e+00,-4.832090065656985400e-01,-9.966726184051191151e-01,-1.290118351434698774e+00
1.400571346282958984e+00,-6.615683593749999147e-02,4.318155917898080176e+00,-4.820862021711413425e-01,-1.763385888233779619e+00,-7.237304342709731664e-01
1.420579671859741211e+00,-7.562078124999999096e-02,4.267534551897854023e+00,-4.730003655819163266e-01,-2.530015108259107581e+00,-5.964819504291296592e-02
1.440587520599365234e+00,-8.460812499999999237e-02,4.200039397230885818e+00,-4.491909083759340060e-01,-3.373433873142952066e+00,7.027415990465786244e-01
1.460596323013305664e+00,-9.284652343749998094e-02,4.115670453897175562e+00,-4.117387071482186411e-01,-4.216591357558169939e+00,1.685116568326012976e+00
1.480604648590087891e+00,-9.995015624999999126e-02,4.012893741108837453e+00,-3.550338475470983801e-01,-5.136697341010923346e+00,2.728750522129827605e+00
1.500612258911132812e+00,-1.056239843749999796e-01,3.894777220441643095e+00,-2.835834981767910712e-01,-5.903579626546104464e+00,3.894135782252704736e+00
1.520620584487915039e+00,-1.093460156249999871e-01,3.758252930319820884e+00,-1.860241245933679510e-01,-6.823374079850328400e+00,4.907520283642877068e+00
1.540628433227539062e+00,-1.106169531249999866e-01,3.604854851531256621e+00,-6.352194663902092919e-02,-7.666895166233990366e+00,5.381872264913525328e+00
1.560637474060058594e+00,-1.095048828124999818e-01,3.433049003288064949e+00,5.557839187836637745e-02,-8.586410996971210352e+00,5.179631610443609979e+00
1.580645322799682617e+00,-1.063275390624999900e-01,3.247437327953902386e+00,1.588048665975519969e-01,-9.276943151143118627e+00,4.953970840957655497e+00
1.600653648376464844e+00,-1.015842187499999827e-01,3.055689729468197058e+00,2.370673295122797675e-01,-9.583390561587538770e+00,4.902928870706344533e+00
1.620661258697509766e+00,-9.559265624999999100e-02,2.857806207830949408e+00,2.994641740746915581e-01,-9.890412621096718482e+00,4.665527143676973409e+00
1.640669345855712891e+00,-8.871597656249999297e-02,2.662990647769472918e+00,3.436950085795995036e-01,-9.736840834462476835e+00,4.693864674537239878e+00
1.660677671432495117e+00,-8.115843749999998580e-02,2.472777030071653392e+00,3.777197163999479468e-01,-9.506723437094830587e+00,4.679161261382867032e+00
1.680685520172119141e+00,-7.305621093749999073e-02,2.291767297101147793e+00,4.049524098237583525e-01,-9.046936296156097512e+00,4.727155812876589813e+00
1.700701475143432617e+00,-6.443199218749999513e-02,2.121495429645841924e+00,4.308672137981963690e-01,-8.506807079619063572e+00,4.177099169586164784e+00
1.720702171325683594e+00,-5.537656249999999003e-02,1.966563370069392080e+00,4.527557243500342499e-01,-7.746333335833564426e+00,3.780470681864803062e+00
1.740710020065307617e+00,-4.588992187499999625e-02,1.825437137583912905e+00,4.741459588412633153e-01,-7.053543552935273908e+00,3.427429735605436623e+00
1.760718584060668945e+00,-3.604015624999999667e-02,1.702718674553061806e+00,4.922774881437524952e-01,-6.133296875243093638e+00,3.350729782769410470e+00
1.780728578567504883e+00,-2.578187499999999577e-02,1.595340019401066733e+00,5.126578743685064055e-01,-5.366251105931674203e+00,3.303246776326328682e+00
1.800734758377075195e+00,-1.506968749999999801e-02,1.506369133703699736e+00,5.354439279244922467e-01,-4.447170151635155833e+00,3.356235460844327001e+00
1.820742607116699219e+00,-3.245429687499999400e-03,1.431204075097303186e+00,5.909809678380342213e-01,-3.756778631454658512e+00,3.452673931322691736e+00
1.840750932693481445e+00,8.714999999999998789e-03,1.377514747521305871e+00,5.977726442725895817e-01,-2.683349357244501743e+00,3.652347328984912433e+00
1.860758781433105469e+00,2.078890624999999576e-02,1.343767170187821769e+00,6.034584930706989869e-01,-1.686716936571476033e+00,3.835233168748938493e+00
1.880767107009887695e+00,3.488269531249999639e-02,1.322291439157422754e+00,7.043962278809833277e-01,-1.073339742897805094e+00,3.824383972971084233e+00
1.900775909423828125e+00,4.929421874999999342e-02,1.322291439157422754e+00,7.202591709066642478e-01,0.000000000000000000e+00,3.778941810741674789e+00
1.920783519744873047e+00,6.452277343749998617e-02,1.339165227824164806e+00,7.611381091065083648e-01,8.433685180780148283e-01,3.632185614282384289e+00
1.940792322158813477e+00,8.043218749999998807e-02,1.372912805157648908e+00,7.951207540245225358e-01,1.686636543023267709e+00,3.140982411776734207e+00
1.960800409317016602e+00,9.690898437499999296e-02,1.425068151945760642e+00,8.235068522402290148e-01,2.606713294265540881e+00,2.454331473754871595e+00
1.980808734893798828e+00,1.135900390624999812e-01,1.494097287400614427e+00,8.337056803422260298e-01,3.450020602171507189e+00,1.610785717594789945e+00
2.000816106796264648e+00,1.302483984374999681e-01,1.580000211522210485e+00,8.326110723691260151e-01,4.293563619468127257e+00,2.680020420195901587e-01
2.020824193954467773e+00,1.457492968749999895e-01,1.678174981946891409e+00,7.747316530028609538e-01,4.906754436264548325e+00,-1.361042030361607535e+00
2.040832757949829102e+00,1.608643749999999761e-01,1.797825483401971347e+00,7.554304311146057271e-01,5.979964453362021537e+00,-3.229786521534146360e+00
2.060840606689453125e+00,1.742319140624999652e-01,1.935883754311679139e+00,6.681147601854163787e-01,6.900205649610589020e+00,-4.658821589178765876e+00
2.080848932266235352e+00,1.851256640624999728e-01,2.093883775463900143e+00,5.444608524683932638e-01,7.896713822748122169e+00,-5.740804527297109772e+00
2.100856781005859375e+00,1.929101562499999645e-01,2.273359527646520384e+00,3.890719231640029641e-01,8.970267344493771944e+00,-6.000000000000000000e+00
2.120864868164062500e+00,1.972222656249999762e-01,2.475844991647424997e+00,2.155183222116306974e-01,1.012018102479564163e+01,-6.000000000000000000e+00
2.140873193740844727e+00,1.981073828124999825e-01,2.701340167466613984e+00,4.423744426305723648e-02,1.127006730042692162e+01,-6.000000000000000000e+00
2.160882472991943359e+00,1.961328906249999726e-01,2.943709131952545466e+00,-9.867882609472793110e-02,1.211282832551921729e+01,-5.937051565156553856e+00
2.180889606475830078e+00,1.920023437499999708e-01,3.198349942741562035e+00,-2.064537070403738017e-01,1.272750096829705058e+01,-5.089991312799401868e+00
2.200897693634033203e+00,1.864419921874999608e-01,3.457592695894235124e+00,-2.779052049571025251e-01,1.295689843326107393e+01,-4.612846604468822775e+00
2.220906019210815430e+00,1.801099999999999646e-01,3.715301468259022855e+00,-3.164678704972531675e-01,1.288007691477364069e+01,-4.528841909227528717e+00
2.240913867950439453e+00,1.735510546874999838e-01,3.962272375108611300e+00,-3.278186174763750849e-01,1.234370121763672401e+01,-3.242030714833779470e+00
2.260921955108642578e+00,1.670601953124999650e-01,4.196971435655114213e+00,-3.244117902764547257e-01,1.173020982419494018e+01,-2.212459821297717788e+00
2.280930042266845703e+00,1.611594140624999782e-01,4.416330688322760878e+00,-2.949198093422300548e-01,1.096352944352861236e+01,-1.438383332493965217e+00
2.300938367843627930e+00,1.558714062499999831e-01,4.617282171535779689e+00,-2.642903721356988367e-01,1.004339330854372214e+01,-1.146800743451624083e+00
2.320946693420410156e+00,1.512642578124999693e-01,4.799825885294171535e+00,-2.302615688564251806e-01,9.123387814631355397e+00,-9.829901976224053595e-01
2.340954780578613281e+00,1.471564062499999825e-01,4.965495810385820441e+00,-2.053095595805522477e-01,8.280148111196417915e+00,-9.667130268374412028e-01
2.360963106155395508e+00,1.433435937499999702e-01,5.115825927598613099e+00,-1.905612983639381197e-01,7.513378200284614117e+00,-1.261617770856070297e+00
2.380970954895019531e+00,1.396215624999999905e-01,5.249282256144663705e+00,-1.860285580142746475e-01,6.670198794623556360e+00,-1.638867286893237019e+00
2.400979042053222656e+00,1.357406640624999883e-01,5.367398776811858951e+00,-1.939664899904672279e-01,5.903438931130835066e+00,-2.124957460556303523e+00
2.420987606048583984e+00,1.315193359374999815e-01,5.470175489600196173e+00,-2.109760663473228548e-01,5.136636133016062367e+00,-2.773077226095882253e+00
2.440995454788208008e+00,1.266852343749999832e-01,5.559146375297563836e+00,-2.416102613234189234e-01,4.446799196415733846e+00,-3.459087453154508829e+00
2.461003780364990234e+00,1.210114062499999810e-01,5.634311433903960165e+00,-2.835733606606213875e-01,3.756689100142307058e+00,-4.191048469590208825e+00
2.481011867523193359e+00,1.142255078124999879e-01,5.694136684631500245e+00,-3.391577807435649516e-01,2.990053484598716338e+00,-4.648340672744151192e+00
2.501020193099975586e+00,1.061686718749999814e-01,5.740156108268068991e+00,-4.026741721380825423e-01,2.300013734780982588e+00,-4.873447785482524885e+00
2.521028041839599609e+00,9.665933593749999331e-02,5.772369704813668179e+00,-4.752802793169598194e-01,1.610047984909172669e+00,-4.871590048952866070e+00
2.541036367416381836e+00,8.567480468749999467e-02,5.789243493480409342e+00,-5.489980262389627663e-01,8.433383694196581182e-01,-4.947406399441027780e+00
2.561044692993164062e+00,7.328316406249998916e-02,5.793845435844066749e+00,-6.193242196827971613e-01,2.300013734781248820e-01,-5.179465703529240628e+00
2.581052541732788086e+00,5.946171874999998941e-02,5.784641551116752822e+00,-6.908011696993529016e-01,-4.600137099740429503e-01,-5.449370720011213365e+00
2.601060867309570312e+00,4.411968749999999051e-02,5.760097858510582647e+00,-7.667823672263199830e-01,-1.226673991883199477e+00,-3.933422445027300984e+00
